b,g,r
126.1334457397461,145.2347869873047,195.7251434326172
126.83443450927734,145.42527770996094,196.28929138183594
126.8183364868164,145.48439025878906,196.3025665283203
126.32698059082031,145.34326171875,195.86434936523438
126.63214111328125,145.5801544189453,196.1437225341797
126.67291259765625,145.5852813720703,196.15350341796875
126.4620361328125,145.5670166015625,195.96983337402344
126.79935455322266,145.78857421875,196.2432403564453
126.75309753417969,145.78138732910156,196.22117614746094
126.5467529296875,145.6855010986328,196.08621215820312
126.59008026123047,145.7435302734375,196.12608337402344
126.70791625976562,145.820068359375,196.24241638183594
126.48165130615234,145.69915771484375,195.94850158691406
126.61907196044922,145.74517822265625,196.12506103515625
126.50572204589844,145.75201416015625,196.12158203125
126.96761322021484,145.7057342529297,196.35606384277344
126.52327728271484,145.80712890625,196.06825256347656
126.52794647216797,145.8885955810547,196.1291961669922
127.04740905761719,145.7155303955078,196.38185119628906
126.41531372070312,145.8593292236328,195.973388671875
126.45258331298828,145.87916564941406,196.03526306152344
126.6099853515625,145.69541931152344,196.05801391601562
127.11900329589844,145.8302001953125,196.46107482910156
127.0603256225586,145.81826782226562,196.4524383544922
126.48504638671875,145.6437225341797,196.02264404296875
126.98765563964844,145.78781127929688,196.38864135742188
126.99787902832031,145.7477569580078,196.3858184814453
126.37641143798828,145.5740966796875,195.9134521484375
126.81796264648438,145.7174530029297,196.26124572753906
126.78129577636719,145.7009735107422,196.25408935546875
126.3199691772461,145.6424560546875,195.91647338867188
126.81655883789062,145.7691192626953,196.29054260253906
126.91802978515625,145.83984375,196.3696746826172
126.37330627441406,145.6352081298828,195.94667053222656
126.72518157958984,145.7283477783203,196.2113800048828
126.68626403808594,145.73231506347656,196.1772003173828
126.29570770263672,145.6294403076172,195.88613891601562
126.82064819335938,145.83364868164062,196.30892944335938
126.74578857421875,145.7447967529297,196.22821044921875
126.39256286621094,145.64674377441406,195.97181701660156
126.83287048339844,145.8140869140625,196.30609130859375
126.85902404785156,145.80763244628906,196.30300903320312
126.23262786865234,145.5863800048828,195.8008575439453
126.79212951660156,145.79608154296875,196.2650909423828
126.69893646240234,145.77593994140625,196.2232666015625
126.3504638671875,145.65199279785156,195.8675994873047
126.63939666748047,145.7621612548828,196.12667846679688
126.67882537841797,145.7821502685547,196.15042114257812
126.34648895263672,145.79750061035156,195.92604064941406
126.6993179321289,145.92532348632812,196.20709228515625
126.6067123413086,145.8958740234375,196.15914916992188
126.43158721923828,145.96182250976562,196.0475311279297
126.78382110595703,146.10195922851562,196.3285675048828
126.82270812988281,146.1517333984375,196.3399200439453
126.43669891357422,146.0447540283203,196.00009155273438
126.82411193847656,146.129638671875,196.2916717529297
126.7735366821289,146.09783935546875,196.24839782714844
126.4881591796875,145.97645568847656,196.00865173339844
126.31766510009766,145.867431640625,195.86155700683594
126.30461883544922,145.81153869628906,195.88247680664062
126.63626861572266,145.95826721191406,196.1885528564453
126.48521423339844,145.85635375976562,196.02748107910156
126.2605972290039,145.79051208496094,195.81732177734375
126.57605743408203,145.93716430664062,196.13623046875
126.54850769042969,145.8798828125,196.0593719482422
126.15076446533203,145.7005157470703,195.74942016601562
126.3812255859375,145.76502990722656,195.9959259033203
126.34886932373047,145.76864624023438,195.96681213378906
126.12014770507812,145.76953125,195.8238525390625
126.44194793701172,145.79608154296875,196.09771728515625
126.44969940185547,145.788330078125,196.0496063232422
126.32745361328125,145.69561767578125,195.87159729003906
126.52709197998047,145.92086791992188,196.0612335205078
126.51627349853516,145.8689727783203,196.0517578125
126.28878021240234,145.65940856933594,195.81936645507812
126.45708465576172,145.81094360351562,195.91261291503906
126.48633575439453,145.84556579589844,195.9728240966797
126.32405853271484,145.65260314941406,195.7949981689453
126.48979949951172,145.85888671875,195.98126220703125
126.42941284179688,145.75485229492188,195.86361694335938
126.35063934326172,145.7286376953125,195.8269805908203
126.672119140625,145.88363647460938,196.1048126220703
126.48125457763672,145.83482360839844,195.98973083496094
126.33110809326172,145.7599334716797,195.79200744628906
126.59375762939453,145.89273071289062,195.9960479736328
126.55296325683594,145.80870056152344,195.96206665039062
126.20336151123047,145.728759765625,195.6783905029297
126.60658264160156,145.90867614746094,196.0048828125
126.5184097290039,145.7816925048828,195.90574645996094
126.28369140625,145.7914276123047,195.72421264648438
126.58393096923828,145.89178466796875,195.98526000976562
126.48767852783203,145.7992401123047,195.91796875
126.18608856201172,145.71556091308594,195.65676879882812
126.67364501953125,145.87107849121094,196.04489135742188
126.58208465576172,145.8365020751953,195.96022033691406
126.20500946044922,145.6503143310547,195.64932250976562
126.57798767089844,145.77601623535156,195.94815063476562
126.58592224121094,145.77410888671875,195.9300079345703
126.22318267822266,145.65667724609375,195.65830993652344
126.62149810791016,145.7715301513672,195.95074462890625
126.36125946044922,145.58868408203125,195.7198028564453
126.35370635986328,145.6141815185547,195.71615600585938
126.52194213867188,145.5903778076172,195.86119079589844
126.4542236328125,145.52505493164062,195.7427215576172
126.19844055175781,145.4998016357422,195.5678253173828
126.68024444580078,145.67965698242188,195.98585510253906
126.53050231933594,145.6014404296875,195.85128784179688
126.31029510498047,145.58456420898438,195.6697540283203
126.5361099243164,145.61769104003906,195.81951904296875
126.53871154785156,145.6619110107422,195.8564453125
126.20248413085938,145.51991271972656,195.56639099121094
126.53546905517578,145.6370086669922,195.8739471435547
126.48700714111328,145.5977783203125,195.82257080078125
126.3304214477539,145.57955932617188,195.6834259033203
126.53468322753906,145.70327758789062,195.89649963378906
126.5652084350586,145.68255615234375,195.84024047851562
126.3171157836914,145.5902862548828,195.62753295898438
126.37348175048828,145.6690673828125,195.69129943847656
126.21438598632812,145.60084533691406,195.51771545410156
126.52942657470703,145.7168426513672,195.8029327392578
126.4378662109375,145.69390869140625,195.74220275878906
126.34146881103516,145.7457733154297,195.66758728027344
126.63119506835938,145.8676300048828,195.88522338867188
126.77945709228516,145.9348907470703,195.98963928222656
126.41056823730469,145.79348754882812,195.70716857910156
126.6380386352539,145.8169403076172,195.88438415527344
126.64956665039062,145.87107849121094,195.9100799560547
126.41297912597656,145.82110595703125,195.63963317871094
126.67267608642578,145.83206176757812,195.8568572998047
126.64044189453125,145.7740936279297,195.84579467773438
126.38473510742188,145.7201385498047,195.60325622558594
126.89646911621094,145.88328552246094,196.04580688476562
126.80496215820312,145.7880859375,195.96678161621094
126.58983612060547,145.590087890625,195.7035675048828
126.82779693603516,145.74607849121094,195.99009704589844
126.7770004272461,145.6722869873047,195.9049835205078
126.52532958984375,145.55123901367188,195.73085021972656
126.7426528930664,145.58937072753906,195.88612365722656
126.78974914550781,145.64955139160156,195.93743896484375
126.63298034667969,145.56756591796875,195.81494140625
126.8873519897461,145.74188232421875,196.1221160888672
126.9823226928711,145.76356506347656,196.1601104736328
126.51136016845703,145.54385375976562,195.80589294433594
126.86420440673828,145.6835479736328,196.0975341796875
126.75713348388672,145.59364318847656,195.97869873046875
126.62713623046875,145.57601928710938,195.86306762695312
126.70658874511719,145.74710083007812,196.0049591064453
126.72702026367188,145.772216796875,196.005859375
126.58798217773438,145.69627380371094,195.88320922851562
126.84756469726562,145.79074096679688,196.09063720703125
126.71343231201172,145.7329864501953,195.99557495117188
126.55084228515625,145.65740966796875,195.80970764160156
126.822509765625,145.8152313232422,196.0483856201172
126.89645385742188,145.82398986816406,196.09815979003906
126.57672119140625,145.66616821289062,195.79580688476562
127.02398681640625,145.88790893554688,196.19210815429688
126.92608642578125,145.8665771484375,196.12579345703125
126.66474914550781,145.78028869628906,195.8833770751953
126.97361755371094,145.89553833007812,196.13087463378906
126.81209564208984,145.8583984375,196.03073120117188
126.70915985107422,145.89071655273438,195.9766387939453
127.0857925415039,145.9719696044922,196.2570037841797
126.85813903808594,145.91079711914062,196.06265258789062
126.6383285522461,145.83456420898438,195.91778564453125
126.9455337524414,145.92742919921875,196.13922119140625
126.99232482910156,145.93789672851562,196.1471710205078
126.5801773071289,145.78627014160156,195.81015014648438
126.8990249633789,145.87747192382812,196.07940673828125
126.76902770996094,145.80645751953125,195.9696044921875
126.6164321899414,145.74420166015625,195.83883666992188
126.84801483154297,145.78944396972656,196.0443115234375
126.67829132080078,145.6348419189453,195.8672637939453
126.50345611572266,145.5992889404297,195.7270050048828
126.82257843017578,145.51539611816406,195.9229736328125
126.74115753173828,145.5017852783203,195.87896728515625
126.403076171875,145.3710174560547,195.6044921875
126.49468231201172,145.43922424316406,195.67254638671875
126.5027084350586,145.4745330810547,195.6914825439453
126.74921417236328,145.601806640625,195.89999389648438
126.69374084472656,145.52867126464844,195.84432983398438
126.59980010986328,145.63330078125,195.77401733398438
126.79082489013672,145.69789123535156,195.9523162841797
126.83908081054688,145.7427520751953,196.0049591064453
126.58855438232422,145.661865234375,195.80001831054688
126.86046600341797,145.74830627441406,196.05560302734375
126.93183898925781,145.81130981445312,196.1232147216797
126.58826446533203,145.72085571289062,195.83827209472656
126.851806640625,145.74139404296875,196.0769805908203
126.84012603759766,145.78189086914062,196.08509826660156
126.63141632080078,145.65443420410156,195.88949584960938
126.8378677368164,145.82083129882812,196.11924743652344
126.9508056640625,145.9154815673828,196.2110137939453
126.6094970703125,145.7489471435547,195.9599151611328
126.90103149414062,145.8786163330078,196.15672302246094
126.83116149902344,145.8728790283203,196.15440368652344
126.56597900390625,145.7427978515625,195.8839569091797
126.65621948242188,145.84310913085938,195.95875549316406
126.727783203125,145.91635131835938,196.0608673095703
126.4643325805664,145.75701904296875,195.80166625976562
126.6897201538086,145.92747497558594,195.9897003173828
126.70648193359375,146.03640747070312,196.0926971435547
126.51568603515625,145.9364013671875,195.8922119140625
126.64230346679688,145.9988555908203,196.00914001464844
126.65455627441406,145.9479217529297,196.00143432617188
126.39509582519531,145.83006286621094,195.8236083984375
126.73731994628906,146.00534057617188,196.13504028320312
126.66355895996094,145.93031311035156,196.0021209716797
126.40716552734375,145.8173370361328,195.8686981201172
126.62419891357422,145.90489196777344,196.08837890625
126.70235443115234,145.93238830566406,196.1007537841797
126.4398193359375,145.82537841796875,195.9048614501953
126.69367980957031,145.89566040039062,196.13479614257812
126.59373474121094,145.80142211914062,196.01644897460938
126.41048431396484,145.71182250976562,195.8738555908203
126.56254577636719,145.83718872070312,196.06002807617188
126.57569885253906,145.78248596191406,195.98574829101562
126.31101989746094,145.6432342529297,195.73851013183594
126.50086975097656,145.6390838623047,195.9014434814453
126.53440856933594,145.76463317871094,195.95518493652344
126.30577087402344,145.68667602539062,195.84698486328125
126.43889617919922,145.74876403808594,195.9476318359375
126.53862762451172,145.80136108398438,196.0917510986328
126.33231353759766,145.7864532470703,195.89524841308594
126.60457611083984,145.8100128173828,196.0485076904297
126.5655517578125,145.84609985351562,196.09024047851562
126.46378326416016,145.80186462402344,195.97982788085938
126.58711242675781,145.8479461669922,196.1148223876953
126.65608978271484,145.9384765625,196.1367950439453
126.53656005859375,145.93873596191406,196.02012634277344
126.79334259033203,146.03695678710938,196.21299743652344
126.75548553466797,146.0338592529297,196.2229766845703
126.53584289550781,145.8850555419922,196.00389099121094
126.6905746459961,146.0274658203125,196.1801300048828
126.73599243164062,146.0243682861328,196.21966552734375
126.3669204711914,145.8038330078125,195.82493591308594
126.4300308227539,145.93557739257812,195.85995483398438
126.29875183105469,145.9688262939453,195.77105712890625
126.57274627685547,146.1445770263672,196.02110290527344
126.65280151367188,146.09397888183594,196.03253173828125
126.49208068847656,146.12020874023438,195.9369659423828
126.75355529785156,146.23947143554688,196.20809936523438
126.80681610107422,146.25596618652344,196.18064880371094
126.31045532226562,146.03842163085938,195.78744506835938
126.56841278076172,146.28952026367188,196.11166381835938
126.49811553955078,146.23484802246094,196.04502868652344
126.75708770751953,145.99700927734375,196.1172332763672
126.39855194091797,146.09117126464844,195.9306182861328
126.57755279541016,146.102783203125,196.00807189941406
126.5168228149414,145.9704132080078,195.91635131835938
127.10220336914062,146.2049102783203,196.47616577148438
126.75780487060547,146.0645294189453,196.17288208007812
126.51673889160156,146.0041046142578,195.9706573486328
126.89800262451172,146.18798828125,196.3321075439453
126.95938110351562,146.2660675048828,196.40196228027344
126.33897399902344,145.9644012451172,195.89544677734375
126.75914764404297,146.212890625,196.26516723632812
126.7209701538086,146.1870880126953,196.22418212890625
126.43798065185547,146.08624267578125,195.99449157714844
126.70045471191406,146.18280029296875,196.21456909179688
126.78800964355469,146.18624877929688,196.25582885742188
126.4123306274414,146.07064819335938,195.9668426513672
126.73916625976562,146.20819091796875,196.21778869628906
126.63787078857422,146.11155700683594,196.1448211669922
126.43573760986328,146.20362854003906,196.04635620117188
126.65029907226562,146.19473266601562,196.19007873535156
126.65656280517578,146.26947021484375,196.21054077148438
126.19612884521484,146.06570434570312,195.79757690429688
126.63324737548828,146.2416534423828,196.13136291503906
126.48126220703125,146.18121337890625,195.97019958496094
126.64593505859375,146.24923706054688,196.08114624023438
126.60128784179688,146.36793518066406,196.142333984375
126.67784118652344,146.3424530029297,196.16375732421875
126.61508178710938,146.2867889404297,196.0763397216797
126.87122344970703,146.4877471923828,196.31463623046875
126.75281524658203,146.53329467773438,196.2664794921875
126.64739990234375,146.3294219970703,196.07460021972656
127.04046630859375,146.5406951904297,196.39500427246094
127.008544921875,146.5137176513672,196.40740966796875
126.64766693115234,146.4215850830078,196.08326721191406
127.06349182128906,146.5386199951172,196.4436492919922
126.984375,146.50648498535156,196.3565216064453
126.66844177246094,146.33262634277344,196.13633728027344
126.69074249267578,146.3546600341797,196.1404266357422
126.77164459228516,146.3580780029297,196.2212677001953
126.55231475830078,146.2717742919922,196.0216827392578
126.84945678710938,146.2838134765625,196.2047119140625
126.76798248291016,146.27960205078125,196.15467834472656
126.52823638916016,146.14859008789062,195.8883819580078
126.8828353881836,146.3335418701172,196.20379638671875
126.97575378417969,146.38345336914062,196.28228759765625
126.53147888183594,146.21885681152344,195.94570922851562
126.87235260009766,146.31040954589844,196.18954467773438
126.81393432617188,146.2471923828125,196.14773559570312
126.66387939453125,146.26870727539062,196.04588317871094
126.60748291015625,146.19424438476562,195.97618103027344
126.50969696044922,146.15419006347656,195.85067749023438
126.72628784179688,146.2571258544922,196.09303283691406
126.75809478759766,146.26779174804688,196.09246826171875
126.51451110839844,146.19931030273438,195.9273223876953
126.64617156982422,146.3306427001953,196.06454467773438
126.60336303710938,146.2855987548828,196.0140838623047
126.78414916992188,146.2362060546875,196.06076049804688
127.04167175292969,146.37860107421875,196.26119995117188
127.15762329101562,146.45103454589844,196.39219665527344
126.73408508300781,146.3413848876953,196.05709838867188
127.0780029296875,146.52239990234375,196.36170959472656
126.97775268554688,146.44554138183594,196.2624053955078
126.7738265991211,146.38037109375,196.12149047851562
127.07968139648438,146.5280303955078,196.35147094726562
127.0464096069336,146.52040100097656,196.3551788330078
126.61235809326172,146.36297607421875,195.96861267089844
126.95465087890625,146.40066528320312,196.2084503173828
126.95891571044922,146.43719482421875,196.24655151367188
126.67321014404297,146.3749542236328,196.01295471191406
126.81866455078125,146.37680053710938,196.200439453125
126.79585266113281,146.3209991455078,196.15951538085938
126.56822967529297,146.1740264892578,195.904541015625
126.87857055664062,146.3213653564453,196.20556640625
126.6919937133789,146.25257873535156,196.0658416748047
126.51663970947266,146.14971923828125,195.86788940429688
126.93179321289062,146.3452911376953,196.2532501220703
126.81404876708984,146.2219696044922,196.14645385742188
126.53851318359375,146.1769561767578,195.92208862304688
126.82557678222656,146.26300048828125,196.1466827392578
126.74105834960938,146.18711853027344,196.1007843017578
126.70288848876953,146.1150665283203,196.02777099609375
126.74981689453125,146.15492248535156,196.05508422851562
126.7390365600586,146.14315795898438,196.0349884033203
126.6419906616211,145.98907470703125,195.8863525390625
127.0343246459961,146.1859893798828,196.2856903076172
126.93424987792969,146.121337890625,196.18411254882812
126.6567153930664,146.02813720703125,195.9347381591797
126.93107604980469,146.16091918945312,196.22442626953125
126.90013885498047,146.13555908203125,196.2102508544922
126.60681915283203,146.05775451660156,195.9835662841797
126.97994995117188,146.22845458984375,196.32066345214844
126.92129516601562,146.2256317138672,196.33145141601562
126.60261535644531,146.0360870361328,195.9757537841797
126.81489562988281,146.09698486328125,196.1338653564453
126.65081024169922,146.07522583007812,196.0081787109375
126.52774047851562,145.9945831298828,195.88168334960938
126.76563262939453,146.09823608398438,196.02455139160156
126.77472686767578,146.1683349609375,196.07025146484375
126.60586547851562,146.05508422851562,195.91525268554688
126.85933685302734,146.10934448242188,196.11891174316406
126.82098388671875,146.01455688476562,196.02789306640625
126.6141128540039,146.13140869140625,195.9022979736328
126.93389892578125,146.21841430664062,196.1178741455078
126.75466918945312,146.1469268798828,196.0274658203125
126.64252471923828,146.14979553222656,195.9085235595703
126.8351821899414,146.2352294921875,196.07855224609375
126.64071655273438,146.0627899169922,195.90182495117188
126.63998413085938,146.12644958496094,195.89093017578125
126.73631286621094,146.10302734375,195.9529571533203
126.39862060546875,145.9060821533203,195.62001037597656
126.67250061035156,145.94752502441406,195.86383056640625
126.66765594482422,145.973876953125,195.86700439453125
126.49083709716797,145.92140197753906,195.7055206298828
126.47874450683594,145.93917846679688,195.73013305664062
126.60057067871094,145.97898864746094,195.78797912597656
126.68072509765625,145.85304260253906,195.7121124267578
126.91468811035156,145.9905242919922,195.95028686523438
126.99555969238281,145.98416137695312,195.9486083984375
126.59394073486328,145.85484313964844,195.69590759277344
126.80518341064453,145.9262237548828,195.838623046875
126.79537963867188,145.89857482910156,195.8409881591797
126.49665069580078,145.7784423828125,195.61973571777344
126.78125762939453,145.89678955078125,195.88584899902344
126.79206848144531,145.92404174804688,195.91383361816406
126.53340911865234,145.84080505371094,195.7333221435547
126.81000518798828,145.88198852539062,195.9171142578125
126.78960418701172,145.8707275390625,195.88754272460938
126.55978393554688,145.72125244140625,195.6722412109375
126.93498992919922,145.89024353027344,196.00364685058594
126.94341278076172,145.9783477783203,196.04283142089844
126.74217224121094,145.95079040527344,195.9184112548828
127.02034759521484,146.11187744140625,196.17808532714844
126.95698547363281,146.0671844482422,196.14541625976562
126.74237823486328,145.8894805908203,195.92947387695312
127.06346893310547,146.16934204101562,196.21859741210938
126.92281341552734,146.1127166748047,196.1291961669922
126.81429290771484,145.94422912597656,196.0120849609375
127.13079071044922,146.099609375,196.26942443847656
127.12161254882812,146.1289825439453,196.25582885742188
126.85055541992188,146.062255859375,196.02674865722656
127.1868667602539,146.180419921875,196.28826904296875
127.06900024414062,146.15809631347656,196.24945068359375
126.84978485107422,146.166015625,196.04649353027344
127.04419708251953,146.14840698242188,196.15658569335938
127.15641784667969,146.24305725097656,196.30157470703125
126.69949340820312,146.0190887451172,195.89964294433594
127.1390380859375,146.2340087890625,196.2675323486328
127.11123657226562,146.20494079589844,196.2350311279297
126.8813247680664,146.10684204101562,195.99606323242188
126.87332916259766,146.13487243652344,196.09799194335938
127.04691314697266,146.11688232421875,196.1485595703125
126.8995132446289,145.9612274169922,196.02635192871094
127.0499496459961,146.12188720703125,196.16787719726562
126.94158935546875,146.0703582763672,196.11520385742188
126.74393463134766,145.8769073486328,195.9639129638672
126.91426849365234,146.03062438964844,196.10060119628906
127.0116958618164,146.10140991210938,196.20787048339844
126.80776977539062,145.98414611816406,196.0479736328125
127.15010070800781,146.1600799560547,196.33619689941406
126.92552185058594,145.99575805664062,196.1537322998047
126.88037109375,145.90892028808594,196.09983825683594
127.15045166015625,146.07769775390625,196.34027099609375
127.01982879638672,145.9490966796875,196.25575256347656
126.75210571289062,145.90713500976562,196.0476837158203
127.04146575927734,146.01258850097656,196.37777709960938
126.94209289550781,145.9544219970703,196.22531127929688
126.75785064697266,145.81886291503906,196.03529357910156
126.71051025390625,145.82907104492188,195.97421264648438
126.62947082519531,145.74765014648438,195.94900512695312
126.89030456542969,145.8921356201172,196.21255493164062
126.78550720214844,145.81265258789062,196.07977294921875
126.49696350097656,145.691650390625,195.8487091064453
126.66380310058594,145.81727600097656,196.01812744140625
126.5671157836914,145.7930450439453,195.96429443359375
126.8011474609375,145.7561492919922,196.06732177734375
127.06340789794922,145.9058837890625,196.32562255859375
127.02029418945312,145.89932250976562,196.30775451660156
126.51714324951172,145.72677612304688,195.94577026367188
126.79827880859375,145.86817932128906,196.16090393066406
126.79721069335938,145.8754119873047,196.1444091796875
126.5481948852539,145.79718017578125,195.9769287109375
126.86249542236328,145.94215393066406,196.25244140625
126.8392333984375,145.9457550048828,196.26136779785156
126.4921646118164,145.8416290283203,195.97743225097656
126.81009674072266,145.98289489746094,196.22169494628906
126.5894546508789,145.85272216796875,196.00242614746094
126.37516784667969,145.83493041992188,195.84742736816406
126.62618255615234,145.94705200195312,196.05699157714844
126.77519989013672,146.0836639404297,196.2074737548828
126.41108703613281,145.95849609375,195.87750244140625
126.74453735351562,145.97129821777344,196.1316375732422
126.76072692871094,145.94264221191406,196.137451171875
126.54964447021484,145.877197265625,195.96734619140625
126.8441390991211,146.03260803222656,196.20562744140625
126.74288940429688,145.919677734375,196.1202392578125
126.57748413085938,145.70372009277344,195.9441680908203
126.76152801513672,145.9290313720703,196.1407928466797
126.70616912841797,145.9021453857422,196.06781005859375
126.51245880126953,145.6309356689453,195.90264892578125
126.93083953857422,145.8882293701172,196.2586212158203
126.73518371582031,145.7283477783203,196.08294677734375
126.42709350585938,145.69900512695312,195.82176208496094
126.79826354980469,145.85366821289062,196.13076782226562
126.66761016845703,145.77288818359375,196.00257873535156
126.45365905761719,145.6825408935547,195.8070526123047
126.60194396972656,145.7282257080078,195.94007873535156
126.56756591796875,145.71583557128906,195.9021759033203
126.36187744140625,145.6892547607422,195.7676544189453
126.60540008544922,145.7244415283203,195.9630889892578
126.49329376220703,145.5681915283203,195.81991577148438
126.19384002685547,145.3338165283203,195.5397186279297
126.40132141113281,145.45074462890625,195.7515869140625
126.4740219116211,145.4945526123047,195.82046508789062
126.08711242675781,145.4020538330078,195.5418701171875
126.62519073486328,145.7433319091797,196.0371551513672
126.43155670166016,145.58544921875,195.87889099121094
126.12947082519531,145.4955596923828,195.6026153564453
126.34777069091797,145.65402221679688,195.8444061279297
126.46471405029297,145.73944091796875,195.91868591308594
126.13187408447266,145.54156494140625,195.6087646484375
126.48624420166016,145.70626831054688,195.94497680664062
126.60791015625,145.8510284423828,195.98724365234375
126.4384536743164,145.84922790527344,195.8853302001953
126.80968475341797,146.07937622070312,196.1829071044922
126.86359405517578,146.04197692871094,196.18238830566406
126.43063354492188,145.92462158203125,195.81655883789062
126.3664779663086,145.84732055664062,195.7882080078125
126.3558578491211,145.89842224121094,195.79774475097656
126.78435516357422,146.03794860839844,196.12901306152344
126.60697174072266,145.97189331054688,195.97360229492188
126.48419952392578,145.95362854003906,195.91627502441406
126.66153717041016,146.0142059326172,196.01841735839844
126.6915512084961,146.00335693359375,196.0362091064453
126.45621490478516,145.9239044189453,195.8629608154297
126.75799560546875,146.02587890625,196.07484436035156
126.72465515136719,145.98367309570312,196.02066040039062
126.40145111083984,145.81602478027344,195.76205444335938
126.68097686767578,145.8976593017578,195.94444274902344
126.65255737304688,145.87701416015625,195.9534149169922
126.33932495117188,145.73951721191406,195.6707305908203
126.6678695678711,145.82240295410156,195.88572692871094
126.73019409179688,145.91641235351562,195.99957275390625
126.36125946044922,145.69033813476562,195.65174865722656
126.61643981933594,145.76124572753906,195.83575439453125
126.62203216552734,145.7257080078125,195.81942749023438
126.34931945800781,145.61671447753906,195.59837341308594
126.73948669433594,145.79429626464844,195.92236328125
126.65882110595703,145.7613525390625,195.88168334960938
126.53450012207031,145.7198944091797,195.76185607910156
126.7276840209961,145.83697509765625,195.9541015625
126.7403335571289,145.90884399414062,195.95423889160156
126.4451675415039,145.76199340820312,195.7308807373047
126.69447326660156,145.86524963378906,195.96226501464844
126.75941467285156,145.89891052246094,195.95623779296875
126.60933685302734,145.9257354736328,195.86465454101562
126.92192840576172,146.11524963378906,196.16880798339844
126.7244644165039,145.99539184570312,196.04302978515625
126.59175872802734,145.85760498046875,195.8546142578125
126.78273010253906,146.01553344726562,196.0585174560547
126.66259002685547,145.92283630371094,195.922607421875
126.62380981445312,145.89096069335938,195.92726135253906
126.64862060546875,146.06544494628906,196.0367889404297
126.63469696044922,146.05836486816406,196.03448486328125
126.54365539550781,145.9322967529297,195.8406982421875
126.87845611572266,146.05975341796875,196.10513305664062
126.7752685546875,146.028076171875,196.02781677246094
126.58319091796875,146.01622009277344,195.85028076171875
126.86117553710938,146.1130828857422,196.0819091796875
126.84617614746094,146.08822631835938,196.03282165527344
126.52989196777344,145.9900360107422,195.81292724609375
126.9521255493164,146.06619262695312,196.1051788330078
126.76383209228516,145.95852661132812,195.94363403320312
126.49809265136719,145.8609619140625,195.76806640625
126.77218627929688,145.9112091064453,195.95494079589844
126.56719207763672,145.72769165039062,195.74522399902344
126.4289779663086,145.75205993652344,195.66749572753906
126.68955993652344,145.75830078125,195.89793395996094
126.62787628173828,145.7016143798828,195.77517700195312
126.44425964355469,145.63595581054688,195.60202026367188
126.71941375732422,145.81813049316406,195.9013671875
126.68197631835938,145.7263946533203,195.7969970703125
126.3379898071289,145.58544921875,195.54737854003906
126.78289794921875,145.83810424804688,195.9253692626953
126.66912841796875,145.77938842773438,195.84197998046875
126.44850158691406,145.66200256347656,195.65313720703125
126.39089965820312,145.60003662109375,195.6078643798828
126.22994232177734,145.548828125,195.47805786132812
126.44336700439453,145.68582153320312,195.6623077392578
126.53618621826172,145.73312377929688,195.78530883789062
126.25483703613281,145.65890502929688,195.537841796875
126.54637908935547,146.04086303710938,195.84547424316406
126.3872299194336,145.9303741455078,195.67701721191406
126.69920349121094,145.71791076660156,195.79380798339844
126.88320922851562,145.91273498535156,196.02662658691406
126.87100982666016,145.8837890625,196.00498962402344
126.44529724121094,145.82757568359375,195.74588012695312
126.75328063964844,145.9522247314453,195.9392547607422
126.86035919189453,146.055908203125,196.07286071777344
126.50433349609375,145.919189453125,195.80206298828125
126.93575286865234,146.12535095214844,196.10955810546875
126.87456512451172,146.08963012695312,196.07952880859375
126.42860412597656,145.9918212890625,195.7541961669922
126.62217712402344,145.98019409179688,195.90724182128906
126.66265106201172,146.0032958984375,195.9109649658203
126.27542114257812,145.86761474609375,195.59512329101562
126.52523803710938,145.93411254882812,195.82383728027344
126.60877990722656,145.9755401611328,195.88690185546875
126.2893295288086,145.8802490234375,195.67694091796875
126.65817260742188,145.92062377929688,195.9084930419922
126.53764343261719,145.8607940673828,195.8346405029297
126.2220230102539,145.62547302246094,195.5387420654297
126.39496612548828,145.56790161132812,195.64512634277344
126.45386505126953,145.6183319091797,195.74343872070312
126.17860412597656,145.6581268310547,195.5089874267578
126.44963073730469,145.76806640625,195.70840454101562
126.4112319946289,145.77503967285156,195.7486114501953
126.2648696899414,145.58261108398438,195.51600646972656
126.5913314819336,145.98861694335938,195.90444946289062
126.54997253417969,145.8515625,195.79757690429688
126.49153900146484,145.85543823242188,195.75355529785156
126.7562026977539,146.04637145996094,196.0146026611328
126.76199340820312,146.09246826171875,195.98348999023438
126.63565826416016,145.98277282714844,195.9496307373047
126.7834243774414,145.96913146972656,196.06314086914062
126.84635162353516,146.0355987548828,196.09603881835938
126.39825439453125,145.88125610351562,195.7332763671875
126.8068618774414,146.0227813720703,196.0708770751953
126.83625030517578,146.04896545410156,196.06993103027344
126.49593353271484,145.908203125,195.81065368652344
126.67780303955078,146.0375518798828,195.992919921875
126.52367401123047,145.94915771484375,195.86883544921875
126.35926818847656,145.93914794921875,195.77914428710938
126.76862335205078,146.15374755859375,196.10513305664062
126.72465515136719,146.14901733398438,196.07608032226562
126.56924438476562,146.1259765625,195.92047119140625
126.82244110107422,146.2408905029297,196.1227264404297
126.83760070800781,146.22299194335938,196.12710571289062
126.45581817626953,146.0865020751953,195.783935546875
126.85216522216797,146.27040100097656,196.10629272460938
126.79862213134766,146.3050537109375,196.095458984375
126.59275817871094,146.19464111328125,195.860107421875
126.8281478881836,146.3673553466797,196.1099395751953
126.87332153320312,146.35435485839844,196.10108947753906
126.57429504394531,146.2545928955078,195.89877319335938
126.6510238647461,146.30154418945312,196.02061462402344
126.42839050292969,146.19447326660156,195.73597717285156
126.84664916992188,146.34988403320312,196.06858825683594
126.7711181640625,146.32752990722656,196.04127502441406
126.56082916259766,146.15182495117188,195.79176330566406
126.85163879394531,146.232177734375,195.98179626464844
127.0092544555664,146.38058471679688,196.15174865722656
126.62010192871094,146.18626403808594,195.83164978027344
126.8629379272461,146.3291015625,196.05633544921875
126.7960205078125,146.2821502685547,196.0102996826172
126.53234100341797,146.17535400390625,195.8485870361328
126.83948516845703,146.24554443359375,196.03379821777344
126.89422607421875,146.3105010986328,196.11695861816406
126.36167907714844,145.99642944335938,195.6529541015625
126.76387023925781,146.17825317382812,196.0286865234375
126.66814422607422,146.12904357910156,195.9473114013672
126.39424896240234,145.99948120117188,195.73245239257812
126.67821502685547,146.18548583984375,196.0253448486328
126.6654052734375,146.17710876464844,196.0016632080078
126.30525207519531,145.95343017578125,195.73382568359375
126.66727447509766,146.14158630371094,196.03858947753906
126.58258819580078,146.12245178222656,195.9981231689453
126.44226837158203,146.13735961914062,195.88426208496094
126.67771911621094,146.16976928710938,196.0561981201172
126.65369415283203,146.1134033203125,195.9871368408203
126.45620727539062,146.1748504638672,195.8598175048828
126.7275161743164,146.24790954589844,196.0879364013672
126.65010070800781,146.2244110107422,196.05133056640625
126.41234588623047,146.20130920410156,195.87814331054688
126.53123474121094,146.27532958984375,196.02645874023438
126.65338897705078,146.36460876464844,196.0564422607422
126.53363800048828,146.21849060058594,195.9049072265625
126.72048950195312,146.37924194335938,196.09764099121094
126.7137680053711,146.40357971191406,196.1041717529297
126.5093002319336,146.11318969726562,195.80628967285156
126.70037841796875,146.3384246826172,196.0865936279297
126.7422103881836,146.33834838867188,196.024169921875
126.57266235351562,146.23194885253906,195.93844604492188
126.73368072509766,146.27572631835938,196.14984130859375
126.59555053710938,146.1114501953125,196.0124053955078
126.4800796508789,146.14324951171875,195.91160583496094
126.78839111328125,146.27061462402344,196.1598663330078
126.69243621826172,146.1098175048828,196.0379180908203
126.40923309326172,146.0641632080078,195.82467651367188
126.76406860351562,146.15069580078125,196.11709594726562
126.57842254638672,146.0561065673828,195.96932983398438
126.37268829345703,145.95108032226562,195.81338500976562
126.59608459472656,146.0770721435547,196.01617431640625
126.77052307128906,146.19947814941406,196.1714324951172
126.37081146240234,146.06126403808594,195.86383056640625
126.84558868408203,146.17868041992188,196.22781372070312
126.66294860839844,146.04075622558594,196.09906005859375
126.42328643798828,145.9761199951172,195.85629272460938
126.72847747802734,146.13388061523438,196.13131713867188
126.78010559082031,146.1724853515625,196.2129669189453
126.5810546875,146.15927124023438,196.03309631347656
127.04016876220703,146.3363800048828,196.3815155029297
126.84695434570312,146.2850341796875,196.19183349609375
126.7281723022461,146.25436401367188,196.11610412597656
126.69532012939453,146.22134399414062,196.0315704345703
126.66837310791016,146.24636840820312,195.99371337890625
126.77117919921875,146.26016235351562,196.1112518310547
126.96308135986328,146.31654357910156,196.19190979003906
126.69739532470703,146.1804962158203,195.9357452392578
127.0531234741211,146.3529510498047,196.18321228027344
127.0999984741211,146.38858032226562,196.26104736328125
126.80860137939453,146.28829956054688,196.04161071777344
127.3377914428711,146.49717712402344,196.4408416748047
127.43636322021484,146.56468200683594,196.5000762939453
126.98800659179688,146.48890686035156,196.2091064453125
127.30225372314453,146.61285400390625,196.45523071289062
127.29002380371094,146.59413146972656,196.43113708496094
127.0249252319336,146.47918701171875,196.18353271484375
127.31758880615234,146.5988006591797,196.41822814941406
127.33154296875,146.61322021484375,196.44781494140625
126.97916412353516,146.4643096923828,196.1348876953125
127.34416198730469,146.55821228027344,196.41729736328125
127.16619873046875,146.44627380371094,196.2803192138672
126.9444351196289,146.3212890625,196.09747314453125
127.24247741699219,146.4494171142578,196.37107849121094
127.21681213378906,146.42724609375,196.35313415527344
126.87056732177734,146.2869110107422,196.04148864746094
127.11441040039062,146.34747314453125,196.23617553710938
127.19918060302734,146.40492248535156,196.3104248046875
126.8279037475586,146.24684143066406,196.00970458984375
127.00590515136719,146.3482666015625,196.2008056640625
126.94129943847656,146.23471069335938,196.09896850585938
126.85993194580078,146.1412811279297,196.03480529785156
127.16841125488281,146.28131103515625,196.30992126464844
127.14488983154297,146.3474578857422,196.22340393066406
126.9410400390625,146.09194946289062,196.07681274414062
127.32150268554688,146.27825927734375,196.3661651611328
127.3836898803711,146.32656860351562,196.4197998046875
126.95313262939453,146.17410278320312,196.0437774658203
127.43001556396484,146.38848876953125,196.46124267578125
127.39713287353516,146.38323974609375,196.4363555908203
127.01150512695312,146.21148681640625,196.10989379882812
127.31851196289062,146.33920288085938,196.38128662109375
127.30369567871094,146.2515106201172,196.34103393554688
127.01992797851562,146.18765258789062,196.12977600097656
127.3389892578125,146.33956909179688,196.39773559570312
127.19927215576172,146.27914428710938,196.28050231933594
126.947021484375,146.21556091308594,196.08364868164062
127.20706176757812,146.32728576660156,196.30995178222656
127.13805389404297,146.25572204589844,196.2261505126953
126.90838623046875,146.23863220214844,196.05850219726562
127.27263641357422,146.37062072753906,196.3704071044922
127.22798156738281,146.3173065185547,196.30819702148438
126.96675872802734,146.2493133544922,196.0959930419922
127.23269653320312,146.3492431640625,196.351806640625
127.08305358886719,146.19708251953125,196.2501983642578
126.89871215820312,146.15956115722656,196.0642852783203
127.29634857177734,146.23802185058594,196.3583526611328
127.02202606201172,146.0984649658203,196.15135192871094
126.9493408203125,146.1123504638672,196.07748413085938
127.15636444091797,146.1515655517578,196.2493896484375
126.97896575927734,145.95355224609375,196.0624542236328
126.77655029296875,145.93093872070312,195.9445343017578
126.93119049072266,145.98118591308594,196.03871154785156
126.78862762451172,145.95091247558594,195.9492950439453
126.95236206054688,145.9599151611328,196.1202392578125
127.01033782958984,146.02542114257812,196.15750122070312
126.79938507080078,145.86781311035156,195.97280883789062
127.02825927734375,145.91038513183594,196.0997314453125
127.17938995361328,146.0536346435547,196.2738494873047
126.7469711303711,145.81471252441406,195.89732360839844
127.05268859863281,145.98590087890625,196.16542053222656
127.03260803222656,145.9868621826172,196.1650848388672
126.85549926757812,145.90753173828125,196.02548217773438
127.19966125488281,146.1226806640625,196.3159942626953
127.19496154785156,146.11138916015625,196.30752563476562
126.78243255615234,145.90623474121094,195.96421813964844
127.09007263183594,146.01132202148438,196.23471069335938
127.1146469116211,146.0301513671875,196.2263946533203
126.85062408447266,145.99819946289062,196.09353637695312
127.07710266113281,146.0223388671875,196.22567749023438
127.0569076538086,146.0294647216797,196.2456512451172
126.73584747314453,145.86892700195312,195.93624877929688
127.03296661376953,145.97525024414062,196.15846252441406
127.04339599609375,145.99783325195312,196.1629180908203
126.74201965332031,145.96490478515625,196.01791381835938
127.0141830444336,146.06222534179688,196.2157440185547
127.0707778930664,146.0948028564453,196.25094604492188
126.87671661376953,146.11119079589844,196.09060668945312
127.11384582519531,146.199951171875,196.30450439453125
126.96077728271484,146.14431762695312,196.16909790039062
126.91875457763672,146.013916015625,196.11044311523438
127.30023956298828,146.18597412109375,196.43167114257812
127.23017120361328,146.0691680908203,196.31503295898438
126.88282775878906,146.0224151611328,196.10569763183594
127.29962158203125,146.205078125,196.44015502929688
127.23180389404297,146.0998992919922,196.34178161621094
127.02164459228516,146.0895538330078,196.20791625976562
127.29423522949219,146.1431884765625,196.4313201904297
127.09614562988281,145.9287109375,196.2593994140625
126.824462890625,145.82443237304688,196.00711059570312
127.16127014160156,145.91412353515625,196.2639617919922
127.04904174804688,145.96066284179688,196.2463836669922
126.85868835449219,145.81980895996094,196.090576171875
127.08353424072266,145.90054321289062,196.2809295654297
127.04582977294922,145.80862426757812,196.23867797851562
126.80907440185547,145.75848388671875,196.0244903564453
127.2288818359375,145.97470092773438,196.3929443359375
127.09123992919922,145.84078979492188,196.25941467285156
126.89678192138672,145.76817321777344,196.07533264160156
127.0996322631836,145.93153381347656,196.25588989257812
127.17089080810547,145.98501586914062,196.37454223632812
126.95223999023438,145.9164581298828,196.16566467285156
127.22583770751953,146.04591369628906,196.42652893066406
127.17035675048828,146.03692626953125,196.38059997558594
127.00277709960938,145.9930419921875,196.2459259033203
127.2281265258789,146.13671875,196.4820098876953
127.23100280761719,146.1304931640625,196.46832275390625
126.80902862548828,145.99415588378906,196.0939483642578
127.11787414550781,146.1336669921875,196.32130432128906
126.98995208740234,146.0389404296875,196.2298126220703
126.88722229003906,146.03221130371094,196.14895629882812
126.8087158203125,145.99703979492188,196.09805297851562
126.88529968261719,146.06802368164062,196.13523864746094
126.98680114746094,146.14898681640625,196.23593139648438
127.02822875976562,146.1858367919922,196.26023864746094
126.83403778076172,146.1451416015625,196.1002655029297
127.11493682861328,146.29165649414062,196.3389434814453
127.14862823486328,146.27256774902344,196.33900451660156
126.85501861572266,146.12765502929688,196.1046600341797
127.10088348388672,146.27117919921875,196.33863830566406
127.17913055419922,146.3031463623047,196.39907836914062
126.8177261352539,146.0810089111328,196.1063995361328
127.13883972167969,146.1576690673828,196.37705993652344
127.03201293945312,146.038330078125,196.2438507080078
126.663818359375,145.8596649169922,195.94630432128906
127.01852416992188,146.0038299560547,196.22474670410156
127.00613403320312,145.98875427246094,196.234375
126.55525970458984,145.76438903808594,195.8842010498047
126.91950225830078,145.8983917236328,196.163330078125
126.89164733886719,145.8990020751953,196.16098022460938
126.66549682617188,145.7700958251953,195.9464569091797
126.86470794677734,145.88247680664062,196.17218017578125
126.90785217285156,145.8047637939453,196.14903259277344
126.6934814453125,145.81895446777344,196.01365661621094
126.90135955810547,145.82772827148438,196.1927032470703
126.70736694335938,145.77212524414062,196.0630340576172
126.5334701538086,145.74073791503906,195.950927734375
126.81182861328125,145.7791290283203,196.14959716796875
126.86439514160156,145.81065368652344,196.16847229003906
126.62926483154297,145.85324096679688,196.00372314453125
126.94387817382812,145.97564697265625,196.28277587890625
126.93724822998047,145.9551239013672,196.2893829345703
126.77649688720703,145.80674743652344,196.11228942871094
126.76023864746094,145.89791870117188,196.16390991210938
126.689697265625,145.81796264648438,196.12109375
126.52884674072266,145.74765014648438,196.0155487060547
126.93888854980469,145.95167541503906,196.37867736816406
126.7857894897461,145.8495330810547,196.19969177246094
126.4171371459961,145.66497802734375,195.91676330566406
126.74092102050781,145.76829528808594,196.10018920898438
126.73902130126953,145.78695678710938,196.1870574951172
126.37950134277344,145.6813507080078,195.88299560546875
126.4882583618164,145.60711669921875,195.92575073242188
126.70172119140625,145.8041229248047,196.11375427246094
126.44481658935547,145.74734497070312,195.9258270263672
126.6641845703125,145.86944580078125,196.0904541015625
126.7301254272461,145.87802124023438,196.09237670898438
126.29488372802734,145.67958068847656,195.7342071533203
126.67823791503906,145.7650604248047,196.0001678466797
126.75300598144531,145.9171600341797,196.1728057861328
126.38379669189453,145.69688415527344,195.84805297851562
126.78643798828125,145.89947509765625,196.18856811523438
126.55474853515625,145.6782989501953,195.99659729003906
126.2370834350586,145.58302307128906,195.75547790527344
126.56974029541016,145.681884765625,196.0176544189453
126.5833969116211,145.72006225585938,196.0507049560547
126.32027435302734,145.59825134277344,195.82589721679688
126.53071594238281,145.6304931640625,196.02532958984375
126.57439422607422,145.57684326171875,196.04302978515625
126.30657196044922,145.5117645263672,195.7758331298828
126.2946548461914,145.51268005371094,195.75210571289062
125.99496459960938,145.31906127929688,195.4921112060547
126.41078186035156,145.46861267089844,195.81512451171875
126.365966796875,145.50843811035156,195.79959106445312
126.1821060180664,145.42245483398438,195.61538696289062
126.40385437011719,145.51266479492188,195.7948760986328
126.32913208007812,145.4190216064453,195.74896240234375
126.14484405517578,145.3915557861328,195.60183715820312
126.40416717529297,145.5535125732422,195.84774780273438
126.37285614013672,145.56463623046875,195.83644104003906
126.1652603149414,145.43862915039062,195.66766357421875
126.39771270751953,145.52784729003906,195.85548400878906
126.37313842773438,145.50926208496094,195.83877563476562
126.03551483154297,145.41358947753906,195.5858917236328
126.41992950439453,145.6768035888672,195.99855041503906
126.42183685302734,145.6868133544922,195.95240783691406
126.10609436035156,145.60597229003906,195.781005859375
126.18917083740234,145.51220703125,195.7425994873047
126.2489013671875,145.63009643554688,195.84828186035156
125.99525451660156,145.56114196777344,195.614013671875
126.33387756347656,145.7104949951172,195.8794708251953
126.33384704589844,145.7229766845703,195.87374877929688
126.14818572998047,145.69668579101562,195.6531982421875
126.48367309570312,145.85848999023438,195.9547882080078
126.42133331298828,145.82452392578125,195.8879852294922
126.10234069824219,145.70745849609375,195.6438751220703
126.31903076171875,145.78993225097656,195.84034729003906
126.3971939086914,145.90904235839844,195.9593048095703
126.26718139648438,145.7045135498047,195.7695770263672
126.38148498535156,145.85723876953125,195.8941192626953
126.25271606445312,145.71434020996094,195.7903289794922
126.15936279296875,145.58148193359375,195.6707305908203
126.17849731445312,145.57603454589844,195.64590454101562
126.21676635742188,145.66421508789062,195.77401733398438
125.85669708251953,145.32603454589844,195.41635131835938
126.14703369140625,145.64791870117188,195.72015380859375
126.10887908935547,145.66766357421875,195.74192810058594
125.9534912109375,145.53860473632812,195.5471954345703
126.1181869506836,145.68492126464844,195.69070434570312
126.09329223632812,145.6720428466797,195.6349639892578
126.15482330322266,145.66583251953125,195.6535186767578
126.24954223632812,145.76806640625,195.70884704589844
126.29293823242188,145.85536193847656,195.84336853027344
126.07555389404297,145.57008361816406,195.6187286376953
126.22957611083984,145.86268615722656,195.78103637695312
126.15873718261719,145.76792907714844,195.6526641845703
126.17709350585938,145.6627655029297,195.6932373046875
126.37467193603516,145.87939453125,195.8870086669922
126.3322525024414,145.89097595214844,195.83432006835938
126.12378692626953,145.68014526367188,195.59463500976562
126.33175659179688,145.86749267578125,195.79586791992188
126.45614624023438,146.01292419433594,195.9069061279297
126.24365234375,145.738525390625,195.65896606445312
126.3608169555664,145.94642639160156,195.79420471191406
126.18769073486328,145.88629150390625,195.6689910888672
126.2149887084961,145.8397216796875,195.7042694091797
126.63924407958984,146.0988006591797,196.0837860107422
126.3507308959961,145.99378967285156,195.85020446777344
126.08033752441406,145.89561462402344,195.59530639648438
126.10934448242188,145.93466186523438,195.60043334960938
125.95291137695312,145.8880615234375,195.4792022705078
126.21063995361328,145.9738311767578,195.64996337890625
126.3161849975586,145.97869873046875,195.6818389892578
126.16365051269531,146.00538635253906,195.56808471679688
126.5119857788086,146.1320343017578,195.85159301757812
126.59634399414062,146.11961364746094,195.8894500732422
126.1348876953125,145.95916748046875,195.56076049804688
126.3258285522461,146.01406860351562,195.7235870361328
126.36602020263672,146.03973388671875,195.7494354248047
125.9458236694336,145.7683868408203,195.38247680664062
126.34700012207031,145.89511108398438,195.68527221679688
126.3396987915039,145.89683532714844,195.68927001953125
125.95314025878906,145.72227478027344,195.37977600097656
126.30694580078125,145.77975463867188,195.63311767578125
126.33580017089844,145.7449188232422,195.5937042236328
125.94752502441406,145.59759521484375,195.2781524658203
126.32927703857422,145.7462921142578,195.6073455810547
126.23628234863281,145.720458984375,195.52865600585938
125.90728759765625,145.58258056640625,195.2825164794922
126.23384094238281,145.66441345214844,195.5124053955078
126.27396392822266,145.70823669433594,195.5777587890625
125.8111343383789,145.46923828125,195.1895294189453
126.24407958984375,145.66314697265625,195.54957580566406
126.2822265625,145.70994567871094,195.55145263671875
126.01554870605469,145.6937713623047,195.35501098632812
126.24613952636719,145.75039672851562,195.55165100097656
126.20046997070312,145.6963653564453,195.4989471435547
125.94589233398438,145.62936401367188,195.330810546875
126.30995178222656,145.82960510253906,195.64207458496094
126.21888732910156,145.80259704589844,195.55780029296875
126.11708068847656,145.64854431152344,195.4739532470703
126.45067596435547,145.86399841308594,195.71287536621094
126.43449401855469,145.82521057128906,195.7306365966797
126.142333984375,145.84690856933594,195.54159545898438
126.3990707397461,145.85606384277344,195.69781494140625
126.48345947265625,145.9722137451172,195.75881958007812
126.19990539550781,145.92227172851562,195.50341796875
126.54342651367188,146.08587646484375,195.78448486328125
126.4745101928711,145.9985809326172,195.68051147460938
126.1918716430664,145.93113708496094,195.4521026611328
126.55101013183594,146.1115264892578,195.8030548095703
126.34370422363281,146.0164031982422,195.5644073486328
126.11740112304688,145.9237823486328,195.33067321777344
126.3941421508789,146.07984924316406,195.5997772216797
126.38578796386719,146.09231567382812,195.61782836914062
126.0472412109375,145.93809509277344,195.32334899902344
126.41426086425781,146.0735626220703,195.65164184570312
126.36463928222656,145.98394775390625,195.57757568359375
126.07913970947266,145.8463592529297,195.3756561279297
126.30228424072266,145.93438720703125,195.6270294189453
126.148681640625,145.8973388671875,195.50860595703125
126.00234985351562,145.84835815429688,195.37646484375
126.22645568847656,145.84727478027344,195.53805541992188
126.24506378173828,145.86309814453125,195.55270385742188
125.99224090576172,145.70431518554688,195.30128479003906
126.39244079589844,145.89840698242188,195.63487243652344
126.45915222167969,145.91754150390625,195.700927734375
125.97283935546875,145.68142700195312,195.23452758789062
126.01472473144531,145.62197875976562,195.28404235839844
125.98101043701172,145.69052124023438,195.26893615722656
126.34580993652344,145.82870483398438,195.56776428222656
126.16030883789062,145.83673095703125,195.4271240234375
126.0609359741211,145.7188720703125,195.34841918945312
126.17261505126953,145.78744506835938,195.43983459472656
126.2685775756836,145.8372039794922,195.51271057128906
126.0193099975586,145.70314025878906,195.29669189453125
126.25138092041016,145.80227661132812,195.4929656982422
126.23561096191406,145.8011474609375,195.49588012695312
126.01053619384766,145.66604614257812,195.33009338378906
126.22935485839844,145.7123260498047,195.50315856933594
126.30284118652344,145.8063507080078,195.5966339111328
125.94998168945312,145.654541015625,195.2789764404297
126.34718322753906,145.8481903076172,195.6131591796875
126.2064437866211,145.8015594482422,195.53269958496094
126.06298065185547,145.77438354492188,195.39199829101562
126.40074157714844,145.97616577148438,195.71473693847656
126.41716766357422,146.01458740234375,195.74595642089844
125.97300720214844,145.87997436523438,195.38214111328125
126.30097198486328,146.0355224609375,195.65858459472656
126.25053405761719,145.99514770507812,195.58395385742188
125.94135284423828,145.95359802246094,195.4193115234375
126.21965789794922,146.05276489257812,195.62655639648438
126.3288345336914,146.1341552734375,195.67587280273438
126.08366394042969,145.9163818359375,195.43679809570312
126.32732391357422,146.1535186767578,195.66709899902344
126.25122833251953,146.10643005371094,195.5974884033203
126.30072784423828,146.08334350585938,195.5871124267578
126.41949462890625,146.2665252685547,195.70660400390625
126.34252166748047,146.14772033691406,195.61227416992188
126.04603576660156,145.97850036621094,195.43955993652344
126.49764251708984,146.1773223876953,195.806396484375
126.35599517822266,146.06842041015625,195.6894989013672
126.02142333984375,145.95469665527344,195.40748596191406
126.42205810546875,146.11924743652344,195.70272827148438
126.30657196044922,145.99061584472656,195.61248779296875
126.0910873413086,145.96192932128906,195.42745971679688
126.43449401855469,146.06948852539062,195.71978759765625
126.38204956054688,145.98681640625,195.6532440185547
126.16850280761719,145.96762084960938,195.51083374023438
126.37454223632812,145.98773193359375,195.6604766845703
126.32280731201172,146.00241088867188,195.61973571777344
125.99231719970703,145.8231964111328,195.35877990722656
126.30278778076172,145.91375732421875,195.6337127685547
126.28263092041016,145.9175262451172,195.63502502441406
126.10284423828125,145.83258056640625,195.4451446533203
126.35834503173828,146.0223846435547,195.73265075683594
126.23536682128906,145.88099670410156,195.60816955566406
126.04102325439453,145.87164306640625,195.47344970703125
126.2845230102539,145.91636657714844,195.66612243652344
126.13548278808594,145.8999481201172,195.54763793945312
125.96318817138672,145.79151916503906,195.33409118652344
126.2618179321289,145.9451446533203,195.62234497070312
126.25899505615234,145.97328186035156,195.65615844726562
125.84136962890625,145.79171752929688,195.262939453125
126.09912872314453,145.83071899414062,195.5232696533203
126.04780578613281,145.72210693359375,195.40184020996094
125.901123046875,145.6310272216797,195.24014282226562
125.9826431274414,145.6345672607422,195.27792358398438
125.9146499633789,145.66099548339844,195.2369842529297
126.07682037353516,145.71182250976562,195.37437438964844
125.95790100097656,145.69476318359375,195.2628936767578
125.75262451171875,145.68331909179688,195.16343688964844
126.15275573730469,145.92764282226562,195.46484375
126.3021469116211,146.09814453125,195.60580444335938
125.9100570678711,145.8776092529297,195.30409240722656
126.17697143554688,146.0210418701172,195.51463317871094
126.30646514892578,146.12368774414062,195.63136291503906
126.00688171386719,145.98635864257812,195.3831787109375
126.4505386352539,146.2208709716797,195.75515747070312
126.38754272460938,146.17640686035156,195.7157745361328
126.07343292236328,146.01962280273438,195.44583129882812
126.36160278320312,146.15904235839844,195.7212371826172
126.3787612915039,146.1505889892578,195.6887664794922
126.004638671875,145.9868621826172,195.4422149658203
126.37899780273438,146.13131713867188,195.7812042236328
126.18267059326172,145.93544006347656,195.5839080810547
126.00123596191406,145.8292999267578,195.41070556640625
126.24324798583984,145.95285034179688,195.6568603515625
126.20906066894531,145.86431884765625,195.60302734375
125.98118591308594,145.8478546142578,195.4352569580078
126.27467346191406,146.0013427734375,195.7130126953125
126.08735656738281,145.84776306152344,195.52499389648438
126.13609313964844,145.761962890625,195.48995971679688
126.2572021484375,145.85850524902344,195.62144470214844
126.30948638916016,145.76881408691406,195.60079956054688
126.07584381103516,145.70578002929688,195.40615844726562
126.51541900634766,145.93246459960938,195.82711791992188
126.48455810546875,145.90423583984375,195.72702026367188
126.17188262939453,145.81997680664062,195.49465942382812
126.3037338256836,145.8197021484375,195.59527587890625
126.39276885986328,145.88555908203125,195.71168518066406
126.08321380615234,145.74961853027344,195.44546508789062
126.39823913574219,145.89666748046875,195.7450714111328
126.35975646972656,145.89633178710938,195.6807403564453
126.07911682128906,145.82411193847656,195.4880828857422
126.37873077392578,145.88424682617188,195.6913299560547
126.27058410644531,145.8113555908203,195.6317138671875
126.03884887695312,145.78823852539062,195.40489196777344
126.40550231933594,145.9216766357422,195.71832275390625
126.45360565185547,145.9638671875,195.74440002441406
126.14559936523438,145.85940551757812,195.4720458984375
126.40894317626953,145.96470642089844,195.6825408935547
126.37628173828125,145.96560668945312,195.6835479736328
126.1137466430664,145.9159393310547,195.44482421875
126.42579650878906,146.05950927734375,195.74072265625
126.31504821777344,146.06346130371094,195.6699981689453
126.0794677734375,145.94302368164062,195.44544982910156
126.34908294677734,146.13087463378906,195.7247772216797
126.3773422241211,146.11354064941406,195.69461059570312
126.0932846069336,145.99996948242188,195.4407958984375
126.4278793334961,146.01890563964844,195.68508911132812
126.39938354492188,145.93084716796875,195.6139373779297
126.08502960205078,145.7882537841797,195.3459014892578
126.34207153320312,145.87017822265625,195.54615783691406
126.12125396728516,145.68017578125,195.3704376220703
126.04251861572266,145.63748168945312,195.27040100097656
126.08716583251953,145.7094268798828,195.37681579589844
125.92210388183594,145.5697479248047,195.20974731445312
126.24006652832031,145.66197204589844,195.5161590576172
126.2457046508789,145.7113037109375,195.5670623779297
126.00223541259766,145.56735229492188,195.36993408203125
126.3517074584961,145.66497802734375,195.6105499267578
126.4948501586914,145.75665283203125,195.71353149414062
125.98678588867188,145.49281311035156,195.28038024902344
126.27339172363281,145.58885192871094,195.51513671875
126.24075317382812,145.58987426757812,195.4980926513672
125.8982162475586,145.39662170410156,195.2200469970703
126.20323944091797,145.52992248535156,195.43698120117188
126.2076644897461,145.53167724609375,195.4752197265625
125.76337432861328,145.3348846435547,195.1257781982422
126.1466064453125,145.495849609375,195.5016326904297
126.20263671875,145.53890991210938,195.52293395996094
125.90510559082031,145.398193359375,195.2771453857422
126.20088958740234,145.4319610595703,195.40821838378906
126.27164459228516,145.5424346923828,195.51608276367188
126.00630187988281,145.43997192382812,195.2762908935547
126.30302429199219,145.57179260253906,195.54998779296875
126.22681427001953,145.52877807617188,195.48745727539062
125.98141479492188,145.43544006347656,195.23919677734375
126.34535217285156,145.72825622558594,195.60372924804688
126.20469665527344,145.62881469726562,195.47848510742188
126.00562286376953,145.45455932617188,195.29025268554688
126.41763305664062,145.72987365722656,195.72027587890625
126.35548400878906,145.66119384765625,195.65164184570312
126.0538101196289,145.59547424316406,195.4202117919922
126.2500228881836,145.6538848876953,195.5517120361328
126.3843002319336,145.7178192138672,195.68247985839844
126.12974548339844,145.71749877929688,195.44461059570312
126.50531005859375,145.80557250976562,195.72994995117188
126.44972229003906,145.8108367919922,195.67066955566406
126.15740966796875,145.6790771484375,195.43936157226562
126.53775787353516,145.7515106201172,195.75588989257812
126.4747314453125,145.73703002929688,195.7403106689453
126.20169830322266,145.6932830810547,195.49227905273438
126.42090606689453,145.73008728027344,195.6933135986328
126.38533020019531,145.7041778564453,195.65115356445312
126.15257263183594,145.6028594970703,195.46302795410156
126.2829818725586,145.60354614257812,195.59597778320312
126.0710678100586,145.4869842529297,195.3629913330078
126.04194641113281,145.50453186035156,195.38035583496094
126.2982177734375,145.52867126464844,195.5775909423828
126.27674865722656,145.57473754882812,195.54946899414062
126.01765441894531,145.36285400390625,195.2926025390625
126.26560974121094,145.46617126464844,195.53970336914062
126.21229553222656,145.3890380859375,195.4564971923828
125.9341049194336,145.329833984375,195.2505340576172
126.20539093017578,145.43563842773438,195.5638427734375
126.12862396240234,145.36215209960938,195.45806884765625
125.96125793457031,145.29446411132812,195.299072265625
126.06777954101562,145.2861328125,195.36912536621094
126.07324981689453,145.30514526367188,195.4501190185547
125.88063049316406,145.2724151611328,195.2955780029297
126.10179138183594,145.3205108642578,195.50782775878906
126.15596008300781,145.40679931640625,195.53549194335938
125.90064239501953,145.2194366455078,195.28684997558594
125.93782806396484,145.24908447265625,195.28768920898438
125.88729858398438,145.24398803710938,195.2850341796875
125.90776062011719,145.20338439941406,195.23097229003906
126.01641845703125,145.35606384277344,195.35427856445312
125.945068359375,145.3366241455078,195.28846740722656
126.24374389648438,145.43092346191406,195.51780700683594
126.24547576904297,145.39614868164062,195.46798706054688
125.85022735595703,145.2527618408203,195.18983459472656
126.16259002685547,145.3834228515625,195.4361114501953
126.18567657470703,145.41845703125,195.4605255126953
125.75045013427734,145.17628479003906,195.1222381591797
126.19990539550781,145.41458129882812,195.52516174316406
126.21876525878906,145.4282989501953,195.5356903076172
125.88102722167969,145.35252380371094,195.2677001953125
126.04928588867188,145.40536499023438,195.42237854003906
126.1773681640625,145.5109405517578,195.52574157714844
125.87626647949219,145.37933349609375,195.27340698242188
126.16742706298828,145.43898010253906,195.5308074951172
126.14848327636719,145.45559692382812,195.51547241210938
125.78569030761719,145.28048706054688,195.2203826904297
126.01847839355469,145.31553649902344,195.43707275390625
126.03614044189453,145.3599395751953,195.4542999267578
125.71788024902344,145.2935028076172,195.2095947265625
125.9835205078125,145.29251098632812,195.44314575195312
125.92501831054688,145.1763458251953,195.37899780273438
125.5693588256836,145.02020263671875,195.06297302246094
125.81212615966797,145.19500732421875,195.2884521484375
125.77620697021484,145.2202911376953,195.33485412597656
125.60691833496094,144.95553588867188,195.0614471435547
125.95787811279297,145.2964630126953,195.4482879638672
125.74992370605469,145.19236755371094,195.2782745361328
125.81867218017578,145.14141845703125,195.27783203125
125.84757232666016,145.16949462890625,195.32330322265625
125.7311019897461,145.05517578125,195.2118377685547
125.70268249511719,145.0797576904297,195.2295379638672
126.03536224365234,145.17173767089844,195.47509765625
126.0592269897461,145.22698974609375,195.5196990966797
125.73505401611328,145.03111267089844,195.1733856201172
125.94295501708984,145.18240356445312,195.43553161621094
125.8923110961914,145.1367645263672,195.3905487060547
125.50077056884766,144.95089721679688,195.0461883544922
126.04209899902344,145.2484130859375,195.5076141357422
125.8960189819336,145.14788818359375,195.40611267089844
125.62648010253906,145.09280395507812,195.18565368652344
125.92769622802734,145.23873901367188,195.4037628173828
125.93985748291016,145.28945922851562,195.44644165039062
125.5456314086914,145.0828399658203,195.1039276123047
125.8674545288086,145.28369140625,195.41456604003906
125.80642700195312,145.23231506347656,195.31686401367188
125.55534362792969,145.0931396484375,195.1142578125
125.73612213134766,145.19581604003906,195.26336669921875
125.7913589477539,145.26181030273438,195.3312530517578
125.54033660888672,145.21755981445312,195.10433959960938
125.71720123291016,145.25619506835938,195.20628356933594
125.76873779296875,145.30804443359375,195.28543090820312
125.44459533691406,145.12722778320312,194.9503631591797
125.78545379638672,145.28846740722656,195.26449584960938
125.70748901367188,145.29185485839844,195.20547485351562
125.46377563476562,145.21705627441406,195.03099060058594
125.56877899169922,145.1334686279297,195.0736541748047
125.30201721191406,144.9847412109375,194.8854522705078
125.5836181640625,145.10653686523438,195.10821533203125
125.40591430664062,145.0259246826172,195.0438995361328
125.35782623291016,145.0342254638672,194.96629333496094
125.54398345947266,145.14248657226562,195.1453857421875
125.66043853759766,145.17005920410156,195.19369506835938
125.36502075195312,145.06427001953125,194.98590087890625
125.62747192382812,145.185302734375,195.20970153808594
125.60869598388672,145.16757202148438,195.1942901611328
125.31413269042969,145.00860595703125,194.9627227783203
125.64151000976562,145.12423706054688,195.19158935546875
125.69876098632812,145.2128143310547,195.30409240722656
125.27371215820312,145.03018188476562,194.9668731689453
125.71488189697266,145.19589233398438,195.25494384765625
125.70243835449219,145.1748809814453,195.2489013671875
125.33790588378906,145.0262908935547,194.94847106933594
125.60861206054688,145.0946502685547,195.19827270507812
125.55915069580078,144.99241638183594,195.1217803955078
125.2500228881836,144.91983032226562,194.87384033203125
125.66959381103516,145.15769958496094,195.2928466796875
125.78495788574219,145.2914276123047,195.36317443847656
125.43864440917969,145.19390869140625,195.1060333251953
125.68281555175781,145.32827758789062,195.31472778320312
125.6684799194336,145.2755584716797,195.2428741455078
125.33280181884766,145.197509765625,194.95745849609375
125.69965362548828,145.35699462890625,195.2338104248047
125.46981811523438,145.2233428955078,195.0401153564453
125.39471435546875,145.3164520263672,194.98170471191406
125.69475555419922,145.48397827148438,195.25656127929688
125.68856048583984,145.49099731445312,195.24276733398438
125.44439697265625,145.2286834716797,194.95652770996094
125.68209838867188,145.4773712158203,195.20693969726562
125.7657470703125,145.54718017578125,195.2476806640625
125.64125061035156,145.35523986816406,195.12254333496094
125.81639099121094,145.40975952148438,195.29209899902344
125.92024993896484,145.46925354003906,195.4097900390625
125.49866485595703,145.27867126464844,195.05332946777344
125.90579223632812,145.40139770507812,195.38589477539062
125.78631591796875,145.3828582763672,195.27734375
125.53311157226562,145.3353271484375,195.11183166503906
125.69963836669922,145.30551147460938,195.2213592529297
125.7651596069336,145.29986572265625,195.24815368652344
125.35552215576172,145.12965393066406,194.8848114013672
125.81086730957031,145.27207946777344,195.25656127929688
125.81739044189453,145.34266662597656,195.27975463867188
125.50479888916016,145.23838806152344,195.04107666015625
125.83140563964844,145.3626251220703,195.30364990234375
125.8837890625,145.3727264404297,195.35130310058594
125.58177185058594,145.29139709472656,195.12144470214844
125.9266586303711,145.53909301757812,195.43772888183594
125.87313842773438,145.51644897460938,195.38328552246094
125.59481811523438,145.41201782226562,195.1707000732422
125.82426452636719,145.48922729492188,195.34152221679688
125.87347412109375,145.46820068359375,195.384033203125
125.51828002929688,145.32102966308594,195.02183532714844
125.92938232421875,145.5449676513672,195.42755126953125
125.9201431274414,145.53794860839844,195.38424682617188
125.58076477050781,145.3484344482422,195.08175659179688
125.50696563720703,145.3491668701172,195.02362060546875
125.46527099609375,145.3737335205078,195.00436401367188
125.63340759277344,145.4310760498047,195.13458251953125
125.72502899169922,145.48507690429688,195.19546508789062
125.30860900878906,145.39930725097656,194.90866088867188
125.68706512451172,145.51470947265625,195.14663696289062
125.70822143554688,145.50994873046875,195.15924072265625
125.32990264892578,145.37167358398438,194.91294860839844
125.66585540771484,145.5833282470703,195.19515991210938
125.74462890625,145.64434814453125,195.2525634765625
125.51648712158203,145.51028442382812,195.05653381347656
125.91590118408203,145.68362426757812,195.35861206054688
125.88650512695312,145.70565795898438,195.32565307617188
125.61491394042969,145.57742309570312,195.10052490234375
125.946044921875,145.77175903320312,195.4040069580078
125.901123046875,145.66159057617188,195.30252075195312
125.55992889404297,145.55055236816406,195.0444793701172
125.83765411376953,145.62139892578125,195.2692108154297
125.8414306640625,145.6223602294922,195.26734924316406
125.52098083496094,145.47071838378906,195.03753662109375
125.84351348876953,145.59046936035156,195.23971557617188
125.85478973388672,145.55860900878906,195.26702880859375
125.54853820800781,145.48353576660156,195.02578735351562
125.85404968261719,145.59844970703125,195.26898193359375
125.75556945800781,145.61024475097656,195.2751007080078
125.71076202392578,145.49427795410156,195.16502380371094
126.0383071899414,145.5723114013672,195.3917236328125
126.09953308105469,145.62496948242188,195.4344940185547
125.7333755493164,145.51626586914062,195.1599578857422
126.12950897216797,145.60882568359375,195.44895935058594
126.01087951660156,145.5269012451172,195.35281372070312
125.7620620727539,145.45428466796875,195.11529541015625
125.9143295288086,145.5457763671875,195.29156494140625
125.84765625,145.46444702148438,195.19908142089844
125.65668487548828,145.4213409423828,195.02957153320312
125.95599365234375,145.6064453125,195.3435516357422
125.79862213134766,145.50633239746094,195.20986938476562
125.57714080810547,145.4329833984375,195.00962829589844
125.77127838134766,145.50657653808594,195.18890380859375
125.8428726196289,145.5719451904297,195.2554473876953
125.53433990478516,145.5225830078125,195.02838134765625
125.75019073486328,145.54714965820312,195.21353149414062
125.78976440429688,145.6136932373047,195.2619171142578
125.42350006103516,145.42596435546875,194.90060424804688
125.746337890625,145.56527709960938,195.13232421875
125.71734619140625,145.61424255371094,195.1451416015625
125.54985809326172,145.58639526367188,194.9567108154297
125.81698608398438,145.7049102783203,195.19461059570312
125.72468566894531,145.6173858642578,195.0948944091797
125.48270416259766,145.54641723632812,194.91061401367188
125.82705688476562,145.6593475341797,195.18844604492188
125.95213317871094,145.7798309326172,195.3162384033203
125.62852478027344,145.59461975097656,195.0199432373047
126.00942993164062,145.80905151367188,195.3995361328125
125.90474700927734,145.72335815429688,195.33055114746094
125.61892700195312,145.5688018798828,195.083251953125
125.90226745605469,145.74705505371094,195.35464477539062
125.80709075927734,145.57098388671875,195.22491455078125
125.71001434326172,145.5797576904297,195.15298461914062
125.69300079345703,145.52947998046875,195.1579132080078
125.52043914794922,145.46807861328125,195.02276611328125
125.93962097167969,145.50900268554688,195.27413940429688
125.86695098876953,145.58763122558594,195.2669219970703
125.7474136352539,145.50291442871094,195.18800354003906
126.03013610839844,145.54891967773438,195.36253356933594
126.11004638671875,145.55679321289062,195.3759307861328
125.68775177001953,145.4310302734375,195.1525115966797
126.0241928100586,145.59913635253906,195.43173217773438
126.00477600097656,145.61758422851562,195.41453552246094
125.73042297363281,145.42623901367188,195.19976806640625
126.04541015625,145.49520874023438,195.3712921142578
125.98442077636719,145.4494171142578,195.32723999023438
125.61923217773438,145.332275390625,195.09996032714844
125.85685729980469,145.2657470703125,195.2049560546875
125.81949615478516,145.23074340820312,195.20542907714844
125.60965728759766,145.07962036132812,194.97679138183594
125.713623046875,145.0575408935547,195.08033752441406
125.83586120605469,145.2548065185547,195.19447326660156
125.47854614257812,145.10113525390625,194.8904571533203
125.80919647216797,145.2348175048828,195.1173095703125
125.72240447998047,145.1861572265625,194.98599243164062
125.5330581665039,145.2198028564453,194.85968017578125
125.98802185058594,145.5650177001953,195.287353515625
125.89354705810547,145.50404357910156,195.19119262695312
125.6560287475586,145.49411010742188,195.03355407714844
126.02104949951172,145.7303009033203,195.3125457763672
126.08428955078125,145.84548950195312,195.38357543945312
125.9210433959961,145.6119384765625,195.1886444091797
126.05665588378906,145.8419189453125,195.40113830566406
126.16984558105469,145.84420776367188,195.4345703125
125.94938659667969,145.6537322998047,195.25950622558594
126.35606384277344,145.75062561035156,195.59197998046875
126.23652648925781,145.74310302734375,195.48841857910156
125.9140396118164,145.5860595703125,195.27935791015625
126.2032470703125,145.62722778320312,195.4571990966797
126.1969223022461,145.61705017089844,195.41946411132812
125.80672454833984,145.4805450439453,195.16162109375
126.26705932617188,145.64524841308594,195.54722595214844
126.14779663085938,145.57330322265625,195.42755126953125
125.82782745361328,145.41651916503906,195.16395568847656
126.17967987060547,145.5605926513672,195.5054473876953
126.23848724365234,145.58636474609375,195.5408477783203
125.98387145996094,145.5386962890625,195.35089111328125
126.46805572509766,145.70057678222656,195.73495483398438
126.29988861083984,145.5959930419922,195.61033630371094
126.00179290771484,145.47889709472656,195.36817932128906
126.19636535644531,145.5447998046875,195.53173828125
126.21709442138672,145.5553436279297,195.55624389648438
125.74317932128906,145.326171875,195.17544555664062
126.08110809326172,145.44253540039062,195.45668029785156
126.0225601196289,145.36184692382812,195.33926391601562
125.74909973144531,145.22586059570312,195.1314239501953
126.03211212158203,145.40228271484375,195.38150024414062
125.94584655761719,145.29443359375,195.3097686767578
125.64934539794922,145.1883544921875,195.0377960205078
125.99942779541016,145.4181365966797,195.38536071777344
126.01042175292969,145.43031311035156,195.34754943847656
125.71914672851562,145.28201293945312,195.1088409423828
125.70648956298828,145.2020721435547,195.10409545898438
125.56964874267578,145.20962524414062,195.0055389404297
125.78853607177734,145.31842041015625,195.17393493652344
125.77191162109375,145.300048828125,195.16241455078125
125.5447998046875,145.2073974609375,194.94253540039062
125.82146453857422,145.35694885253906,195.17868041992188
126.03424835205078,145.48291015625,195.32989501953125
125.56001281738281,145.23802185058594,194.95750427246094
125.91597747802734,145.40977478027344,195.24069213867188
125.94539642333984,145.4394989013672,195.27076721191406
125.63208770751953,145.28109741210938,194.9979705810547
126.01226043701172,145.43496704101562,195.31874084472656
125.9192123413086,145.39007568359375,195.2934112548828
125.6132583618164,145.2933807373047,195.0700225830078
125.93360900878906,145.3182830810547,195.28416442871094
125.93309783935547,145.3082733154297,195.31417846679688
125.50765991210938,145.1352081298828,194.96502685546875
125.99153137207031,145.21299743652344,195.3473358154297
125.8517074584961,145.1614532470703,195.2310791015625
125.44672393798828,144.95611572265625,194.93173217773438
125.72549438476562,144.96603393554688,195.10462951660156
125.69605255126953,144.93067932128906,195.068603515625
125.35882568359375,144.84341430664062,194.8055877685547
125.79377746582031,145.0931854248047,195.23330688476562
125.72393035888672,144.937255859375,195.12059020996094
125.4553451538086,144.87081909179688,194.9158477783203
125.74893188476562,145.03016662597656,195.20587158203125
125.75480651855469,145.0506134033203,195.25772094726562
125.4205322265625,144.8871307373047,194.95838928222656
125.83200073242188,145.08912658691406,195.32763671875
125.65970611572266,145.0247344970703,195.17242431640625
125.48289489746094,144.96800231933594,195.07940673828125
125.72122955322266,145.0817413330078,195.24314880371094
125.79107666015625,145.1011199951172,195.2935028076172
125.56153106689453,144.9326171875,195.09593200683594
125.99386596679688,145.1454620361328,195.43165588378906
126.01625061035156,145.205810546875,195.50181579589844
125.59416198730469,145.00489807128906,195.14137268066406
125.9507827758789,145.225341796875,195.4381866455078
125.8759536743164,145.16580200195312,195.36863708496094
125.59822082519531,145.10716247558594,195.1027374267578
125.96842956542969,145.1692657470703,195.38417053222656
125.88309478759766,145.23045349121094,195.4006805419922
125.60899353027344,145.0870819091797,195.09820556640625
125.91802978515625,145.20016479492188,195.37081909179688
125.9108657836914,145.24057006835938,195.35873413085938
125.60749816894531,145.1488494873047,195.0697021484375
126.00167846679688,145.27267456054688,195.36546325683594
126.0000228881836,145.309814453125,195.4243621826172
125.66849517822266,145.13803100585938,195.14414978027344
125.99395751953125,145.34715270996094,195.4224853515625
125.89482879638672,145.28160095214844,195.3481903076172
125.7057113647461,145.20394897460938,195.1852264404297
125.94688415527344,145.2606201171875,195.3775634765625
125.84497833251953,145.19000244140625,195.25926208496094
125.63993835449219,145.11160278320312,195.10317993164062
125.78240966796875,145.06756591796875,195.19090270996094
125.96533966064453,145.2498016357422,195.39871215820312
125.49956512451172,144.97117614746094,194.96859741210938
125.71612548828125,145.01731872558594,195.1442108154297
125.50965118408203,144.90512084960938,194.98776245117188
125.86653900146484,145.11227416992188,195.32022094726562
125.67469787597656,145.01316833496094,195.17799377441406
125.60560607910156,144.95448303222656,195.04261779785156
125.90216827392578,145.1145782470703,195.2663116455078
126.01337432861328,145.1522216796875,195.37451171875
125.62122344970703,145.0108642578125,195.0813751220703
126.03087615966797,145.21751403808594,195.4392547607422
126.0293197631836,145.224609375,195.42433166503906
125.74130249023438,145.13143920898438,195.23196411132812
126.03477478027344,145.2295684814453,195.457763671875
126.0396957397461,145.22630310058594,195.4275360107422
125.6166763305664,145.08583068847656,195.1518096923828
125.97116088867188,145.21551513671875,195.43345642089844
125.96772003173828,145.207763671875,195.4111328125
125.53404235839844,145.0410919189453,195.11190795898438
125.89399719238281,145.2026824951172,195.4170379638672
125.86458587646484,145.13819885253906,195.38299560546875
125.48350524902344,145.03631591796875,195.07528686523438
125.9390640258789,145.2514190673828,195.43600463867188
125.99304962158203,145.33612060546875,195.54183959960938
125.68477630615234,145.2731170654297,195.27037048339844
125.81939697265625,145.2068328857422,195.31912231445312
125.98060607910156,145.3946990966797,195.48629760742188
125.70648193359375,145.32913208007812,195.2321319580078
126.08856201171875,145.49195861816406,195.52423095703125
125.8028335571289,145.35049438476562,195.28366088867188
125.75755310058594,145.23435974121094,195.22911071777344
125.89936065673828,145.3500518798828,195.35206604003906
125.89846801757812,145.29290771484375,195.3488311767578
125.70921325683594,145.19656372070312,195.17523193359375
126.148193359375,145.3115997314453,195.503173828125
126.0933837890625,145.2855224609375,195.45924377441406
125.81761932373047,145.23426818847656,195.22955322265625
126.08602142333984,145.3266143798828,195.4998016357422
126.04634094238281,145.29107666015625,195.4140167236328
125.77131652832031,145.1656951904297,195.1796112060547
126.08750915527344,145.3038330078125,195.4670867919922
126.0570068359375,145.2701873779297,195.43345642089844
125.74793243408203,145.03782653808594,195.10726928710938
126.05823516845703,145.25540161132812,195.3724822998047
126.03108978271484,145.1969757080078,195.37881469726562
125.66770935058594,145.03359985351562,195.03184509277344
126.04942321777344,145.20591735839844,195.35494995117188
125.96491241455078,145.194091796875,195.31275939941406
125.76913452148438,145.15182495117188,195.18211364746094
126.02339172363281,145.24095153808594,195.373779296875
125.9798355102539,145.22457885742188,195.3687744140625
125.69139862060547,145.07078552246094,195.09368896484375
126.01846313476562,145.25567626953125,195.37750244140625
125.98388671875,145.24688720703125,195.38043212890625
125.74101257324219,145.0933380126953,195.1162109375
126.09291076660156,145.28648376464844,195.40834045410156
126.02056121826172,145.22105407714844,195.37376403808594
125.6444091796875,145.04849243164062,195.0400848388672
125.88480377197266,145.16357421875,195.2697296142578
125.79499053955078,145.16458129882812,195.2451171875
125.5776138305664,145.05386352539062,195.05999755859375
125.5887451171875,145.07423400878906,195.05918884277344
125.54222869873047,145.11622619628906,195.0325469970703
125.72857666015625,145.14859008789062,195.15419006347656
125.64893341064453,145.107666015625,195.05636596679688
125.43879699707031,144.99188232421875,194.8438720703125
125.92340850830078,145.2275848388672,195.2093963623047
125.99950408935547,145.27825927734375,195.2616424560547
125.5702896118164,145.16856384277344,195.01382446289062
125.89222717285156,145.2813720703125,195.2305450439453
125.87306213378906,145.26129150390625,195.2013397216797
125.61376190185547,145.22784423828125,195.07479858398438
126.10863494873047,145.40061950683594,195.4403839111328
126.04334259033203,145.39389038085938,195.39324951171875
125.59707641601562,145.12705993652344,195.0331573486328
125.9596176147461,145.25279235839844,195.26202392578125
126.06591033935547,145.34425354003906,195.37167358398438
125.73191833496094,145.24256896972656,195.13856506347656
126.06333923339844,145.2593536376953,195.34861755371094
125.99127960205078,145.2053985595703,195.31739807128906
125.6929931640625,145.05804443359375,195.07839965820312
125.86622619628906,145.108154296875,195.27708435058594
125.86421966552734,145.0398406982422,195.2124481201172
125.74055480957031,145.12481689453125,195.1819305419922
126.02176666259766,145.20480346679688,195.41421508789062
125.82038879394531,145.12852478027344,195.26707458496094
125.7991943359375,145.0304412841797,195.20729064941406
126.03056335449219,145.23272705078125,195.4963836669922
126.00062561035156,145.18858337402344,195.4529571533203
125.65616607666016,144.97608947753906,195.1527099609375
125.97943878173828,145.11526489257812,195.42105102539062
125.95599365234375,145.1074676513672,195.42355346679688
125.78069305419922,145.12356567382812,195.27175903320312
125.94547271728516,145.18386840820312,195.38766479492188
125.89527130126953,145.13558959960938,195.3534393310547
125.59259033203125,145.0760498046875,195.15052795410156
125.85401153564453,145.16256713867188,195.30296325683594
125.68067932128906,144.9547119140625,195.11138916015625
125.42242431640625,144.82005310058594,194.87054443359375
125.83136749267578,145.00059509277344,195.124267578125
125.7533187866211,144.93809509277344,195.10562133789062
125.48870086669922,144.97601318359375,194.8777313232422
125.92343139648438,145.12879943847656,195.2210693359375
125.87110137939453,145.1162109375,195.13623046875
125.63304901123047,145.1080322265625,194.98587036132812
125.9652328491211,145.2361602783203,195.2729949951172
126.0729751586914,145.3210906982422,195.40158081054688
125.71280670166016,145.11134338378906,195.02130126953125
126.13924407958984,145.3107452392578,195.4318389892578
125.9592056274414,145.1696014404297,195.2437744140625
125.73148345947266,145.15780639648438,195.1184844970703
126.0060806274414,145.19931030273438,195.30087280273438
126.02879333496094,145.21371459960938,195.3320770263672
125.68426513671875,145.0782928466797,195.01161193847656
125.98304748535156,145.23316955566406,195.32211303710938
125.86979675292969,145.1078338623047,195.2156982421875
125.7078628540039,145.0813751220703,195.0986328125
125.89065551757812,145.1538848876953,195.23513793945312
125.94562530517578,145.18157958984375,195.30615234375
125.72589874267578,145.03945922851562,195.0511016845703
125.91252899169922,145.19557189941406,195.23141479492188
125.62168884277344,145.12001037597656,195.06866455078125
125.89179992675781,145.18435668945312,195.28265380859375
125.87040710449219,145.18653869628906,195.26344299316406
125.71212768554688,145.1718292236328,195.1514129638672
125.96931457519531,145.28341674804688,195.32327270507812
126.08140563964844,145.26451110839844,195.37615966796875
125.73201751708984,145.1536102294922,195.1163330078125
126.10945892333984,145.29307556152344,195.35400390625
126.05839538574219,145.287841796875,195.3460693359375
125.78559112548828,145.16192626953125,195.14649963378906
126.14590454101562,145.4085693359375,195.45913696289062
126.1459732055664,145.37738037109375,195.43763732910156
125.68187713623047,145.2010040283203,195.1101837158203
125.93220520019531,145.2689971923828,195.31675720214844
125.9260025024414,145.25779724121094,195.2739715576172
125.7543716430664,145.25050354003906,195.1634979248047
125.89623260498047,145.3228759765625,195.27133178710938
125.98100280761719,145.42123413085938,195.38612365722656
125.60942077636719,145.30857849121094,195.08831787109375
125.81442260742188,145.35279846191406,195.23126220703125
125.87643432617188,145.368408203125,195.2446746826172
125.65850830078125,145.3245086669922,195.0419921875
125.90342712402344,145.3596954345703,195.2870635986328
125.81859588623047,145.3565216064453,195.23585510253906
125.4426498413086,145.16714477539062,194.88116455078125
125.82550048828125,145.26783752441406,195.1863250732422
125.85511016845703,145.38021850585938,195.296142578125
125.57392883300781,145.2175750732422,194.9845428466797
125.72843933105469,145.27926635742188,195.16065979003906
125.79732513427734,145.2457275390625,195.19871520996094
125.71864318847656,145.08665466308594,195.06341552734375
125.8140640258789,145.14743041992188,195.19810485839844
125.74781799316406,145.2365264892578,195.20413208007812
125.6518325805664,145.09747314453125,195.06637573242188
125.73626708984375,145.1660614013672,195.17710876464844
125.75080871582031,145.1970977783203,195.17845153808594
125.62566375732422,145.0753631591797,195.04879760742188
125.79708862304688,145.21156311035156,195.20787048339844
125.7283935546875,145.2378387451172,195.2147216796875
125.52245330810547,144.99166870117188,195.02806091308594
125.83198547363281,145.1858673095703,195.27423095703125
125.8275146484375,145.1420135498047,195.26536560058594
125.57267761230469,145.11270141601562,195.06124877929688
125.93189239501953,145.2351531982422,195.35470581054688
125.8664321899414,145.21282958984375,195.3204803466797
125.55110931396484,145.0775146484375,195.06668090820312
125.75819396972656,145.0861053466797,195.2001495361328
125.8331069946289,145.13246154785156,195.28607177734375
125.42930603027344,145.00210571289062,194.9601287841797
125.87063598632812,145.2422637939453,195.30694580078125
125.77584075927734,145.19241333007812,195.23455810546875
125.51315307617188,145.0869140625,195.01544189453125
125.76884460449219,145.2859344482422,195.24813842773438
125.72911834716797,145.22708129882812,195.20323181152344
125.43634033203125,145.11741638183594,194.9732208251953
125.65340423583984,145.21351623535156,195.14511108398438
125.66279602050781,145.28614807128906,195.15484619140625
125.41736602783203,145.22166442871094,194.9471893310547
125.3891830444336,145.14053344726562,194.89581298828125
125.24356842041016,145.103515625,194.7553253173828
125.47388458251953,145.20370483398438,194.96652221679688
125.49057006835938,145.19644165039062,194.96669006347656
125.21029663085938,145.07508850097656,194.7425994873047
125.4677505493164,145.20338439941406,194.94381713867188
125.52245330810547,145.21249389648438,194.97486877441406
125.18882751464844,145.07708740234375,194.76608276367188
125.57025146484375,145.20188903808594,195.01866149902344
125.54234313964844,145.14292907714844,194.97157287597656
125.06221008300781,144.89785766601562,194.58151245117188
125.55244445800781,145.0766143798828,194.98699951171875
125.55509185791016,145.10057067871094,195.00775146484375
125.20454406738281,144.9989471435547,194.7595977783203
125.62657928466797,145.21438598632812,195.14688110351562
125.63497924804688,145.2097625732422,195.12757873535156
125.12139892578125,144.97647094726562,194.743408203125
125.52803039550781,145.105712890625,195.01881408691406
125.44776153564453,145.06103515625,194.95579528808594
125.18457794189453,145.02304077148438,194.7906951904297
125.45870971679688,145.11915588378906,194.97879028320312
125.54644012451172,145.23196411132812,195.08998107910156
125.17845916748047,145.1171417236328,194.7663116455078
125.51849365234375,145.16993713378906,194.97463989257812
125.55476379394531,145.21038818359375,195.0364990234375
125.18523406982422,145.08023071289062,194.76712036132812
125.42305755615234,145.23385620117188,195.0065460205078
125.41082000732422,145.19125366210938,194.94427490234375
125.28971099853516,145.03265380859375,194.8565673828125
125.47576904296875,145.25289916992188,195.04136657714844
125.36370849609375,145.2366943359375,194.985107421875
125.23699951171875,145.11380004882812,194.83853149414062
125.5637435913086,145.31173706054688,195.1216583251953
125.6118392944336,145.3306884765625,195.17132568359375
125.2421646118164,145.2430877685547,194.86289978027344
125.51309967041016,145.27749633789062,195.03121948242188
125.5855712890625,145.33111572265625,195.09713745117188
125.3213119506836,145.32989501953125,194.93643188476562
125.54872131347656,145.38519287109375,195.12948608398438
125.5001449584961,145.2971649169922,194.98338317871094
125.2137680053711,145.21348571777344,194.79481506347656
125.53495788574219,145.28683471679688,195.036376953125
125.368896484375,145.21673583984375,194.8861846923828
125.07568359375,145.01947021484375,194.57040405273438
125.45056915283203,145.24583435058594,194.92172241210938
125.4006576538086,145.1690216064453,194.90696716308594
125.00202941894531,145.0146026611328,194.58094787597656
125.3586196899414,145.11410522460938,194.86419677734375
125.39744567871094,145.17555236816406,194.94235229492188
125.069580078125,145.03761291503906,194.6217041015625
125.30848693847656,145.13450622558594,194.83731079101562
125.18562316894531,144.98568725585938,194.6761474609375
125.0091552734375,144.93106079101562,194.54893493652344
125.3841552734375,145.1226043701172,194.86073303222656
125.31420135498047,145.13925170898438,194.87452697753906
125.11949157714844,145.04495239257812,194.6698760986328
125.40103912353516,145.1806640625,194.91860961914062
125.41242218017578,145.16346740722656,194.9085235595703
125.1454849243164,145.1420135498047,194.7249298095703
125.23664855957031,145.0959930419922,194.74334716796875
125.22794342041016,145.16717529296875,194.71014404296875
125.3919448852539,145.1685333251953,194.80963134765625
125.349609375,145.23373413085938,194.8274383544922
125.07679748535156,145.11280822753906,194.64657592773438
125.35346984863281,145.2662811279297,194.83676147460938
125.41117095947266,145.29798889160156,194.90460205078125
125.18206787109375,145.20494079589844,194.7371063232422
125.48405456542969,145.29791259765625,194.9111785888672
125.50292205810547,145.32765197753906,194.94808959960938
125.21338653564453,145.21263122558594,194.73304748535156
125.57789611816406,145.38734436035156,194.98512268066406
125.68575286865234,145.4626007080078,195.08193969726562
125.36400604248047,145.35142517089844,194.83233642578125
125.77247619628906,145.474853515625,195.089599609375
125.69139099121094,145.40484619140625,195.02589416503906
125.39794158935547,145.36550903320312,194.80409240722656
125.66910552978516,145.48712158203125,195.0363006591797
125.80768585205078,145.49609375,195.11279296875
125.4172592163086,145.40185546875,194.84295654296875
125.71204376220703,145.44174194335938,195.11502075195312
125.62339782714844,145.38031005859375,195.04844665527344
125.48589324951172,145.34622192382812,194.90431213378906
125.7756576538086,145.45152282714844,195.13406372070312
125.74092864990234,145.33546447753906,195.0669403076172
125.39212036132812,145.2222137451172,194.77719116210938
125.7158432006836,145.3225860595703,195.0586395263672
125.58647918701172,145.2418212890625,194.9742889404297
125.39868927001953,145.21337890625,194.87240600585938
125.69725799560547,145.34735107421875,195.08987426757812
125.86737060546875,145.43597412109375,195.22279357910156
125.52484130859375,145.19284057617188,194.87831115722656
125.69559478759766,145.2948760986328,195.04612731933594
125.76628875732422,145.29312133789062,195.03286743164062
125.64505004882812,145.2313995361328,194.97915649414062
125.64771270751953,145.2853240966797,195.01881408691406
125.78515625,145.30589294433594,195.10743713378906
125.71566772460938,145.25146484375,195.0289306640625
125.97200012207031,145.38784790039062,195.30508422851562
125.78872680664062,145.29234313964844,195.16046142578125
125.33448028564453,145.07054138183594,194.72669982910156
125.67564392089844,145.2088623046875,194.99154663085938
125.76359558105469,145.2938690185547,195.0659637451172
125.33493041992188,145.09593200683594,194.6977996826172
125.73865509033203,145.29483032226562,195.06060791015625
125.634033203125,145.2232666015625,194.97689819335938
125.46887969970703,145.2281951904297,194.83187866210938
125.75997161865234,145.34335327148438,195.02699279785156
125.80817413330078,145.3851776123047,195.0585479736328
125.52884674072266,145.3174591064453,194.80494689941406
125.97966003417969,145.53057861328125,195.1919708251953
125.89817810058594,145.49966430664062,195.12449645996094
125.69481658935547,145.42918395996094,194.93426513671875
125.87641143798828,145.4216766357422,195.06626892089844
125.92919158935547,145.46591186523438,195.12033081054688
125.52793884277344,145.25860595703125,194.75990295410156
125.84947204589844,145.3800811767578,195.07208251953125
125.70732879638672,145.2108154296875,194.9468994140625
125.53360748291016,145.18833923339844,194.83450317382812
125.59459686279297,145.14886474609375,194.8666534423828
125.5467529296875,145.1116943359375,194.8331756591797
125.74057006835938,145.19833374023438,195.022705078125
125.73323822021484,145.17523193359375,195.04122924804688
125.37999725341797,145.00704956054688,194.7581024169922
125.64337921142578,145.09097290039062,194.94204711914062
125.62725067138672,145.09764099121094,194.95567321777344
125.38597869873047,144.9949493408203,194.74703979492188
125.70621490478516,145.1549072265625,195.00750732421875
125.6087417602539,145.04986572265625,194.90213012695312
125.36627197265625,144.8709259033203,194.67556762695312
125.86368560791016,145.1009521484375,195.0898895263672
125.7099380493164,145.01416015625,194.95413208007812
125.39569091796875,144.87249755859375,194.688232421875
125.78897857666016,145.0840606689453,195.0165252685547
125.7320785522461,145.06272888183594,195.01510620117188
125.45214080810547,144.94000244140625,194.78085327148438
125.81261444091797,145.07754516601562,195.06610107421875
125.73043060302734,145.06126403808594,195.0170440673828
125.35982513427734,144.90061950683594,194.72105407714844
125.70011138916016,145.02244567871094,194.93557739257812
125.60262298583984,145.02772521972656,194.92308044433594
125.31482696533203,144.96189880371094,194.7570343017578
125.75611114501953,145.19924926757812,195.09329223632812
125.6759262084961,145.14736938476562,194.99462890625
125.62091064453125,145.0816650390625,194.93252563476562
125.76470184326172,145.24191284179688,195.10025024414062
125.83724975585938,145.24200439453125,195.09432983398438
125.42694091796875,144.90476989746094,194.7294158935547
125.74835205078125,145.13990783691406,195.01504516601562
125.72591400146484,145.08981323242188,194.9550323486328
125.6457748413086,145.03189086914062,194.87557983398438
125.97193908691406,145.11814880371094,195.1507110595703
125.81914520263672,145.07382202148438,195.044189453125
125.65739440917969,145.04556274414062,194.8876495361328
125.912109375,144.9707794189453,195.0699462890625
125.96595764160156,145.05393981933594,195.12889099121094
125.63158416748047,144.90240478515625,194.86192321777344
125.89826202392578,144.95404052734375,195.08688354492188
125.90921020507812,144.97756958007812,195.13156127929688
125.4731674194336,144.82550048828125,194.779052734375
125.92955017089844,144.99453735351562,195.20962524414062
125.8836898803711,144.9755401611328,195.1707000732422
125.50543975830078,144.8314971923828,194.83348083496094
125.72576904296875,144.94439697265625,195.09033203125
125.60677337646484,144.80865478515625,194.94528198242188
125.48290252685547,144.815185546875,194.86045837402344
125.77946472167969,144.90155029296875,195.10369873046875
125.73030853271484,144.9006805419922,195.07933044433594
125.39588165283203,144.73052978515625,194.8489227294922
125.76827239990234,144.9112548828125,195.1405029296875
125.67232513427734,144.82562255859375,195.02407836914062
125.4466781616211,144.82696533203125,194.85430908203125
125.88439178466797,145.01402282714844,195.2293701171875
125.84501647949219,145.02584838867188,195.23350524902344
125.57168579101562,144.83316040039062,194.89520263671875
125.75971221923828,144.94198608398438,195.0472412109375
125.74618530273438,144.9416046142578,195.05331420898438
125.45193481445312,144.8318328857422,194.790771484375
125.58970642089844,144.8451385498047,194.8828125
125.44925689697266,144.8865203857422,194.83729553222656
125.73344421386719,144.998046875,195.0748748779297
125.56846618652344,144.9374542236328,194.9539031982422
125.41503143310547,144.81263732910156,194.7739715576172
125.63777923583984,144.9473876953125,194.94790649414062
125.66195678710938,144.98146057128906,194.99722290039062
125.48551177978516,144.92269897460938,194.86669921875
125.66754150390625,145.02337646484375,195.0320587158203
125.72879791259766,145.06130981445312,195.05931091308594
125.5307846069336,144.99620056152344,194.93179321289062
125.87495422363281,145.12571716308594,195.20187377929688
125.91732788085938,145.17144775390625,195.23985290527344
125.36259460449219,145.07859802246094,194.8756103515625
125.71320343017578,145.0931854248047,195.0972900390625
125.63961029052734,145.1562042236328,195.0974578857422
125.3776626586914,144.95289611816406,194.86785888671875
125.62251281738281,145.0002899169922,195.0250244140625
125.69947052001953,145.04586791992188,195.1271514892578
125.38787841796875,144.92933654785156,194.86827087402344
125.67724609375,144.97657775878906,195.13902282714844
125.56550598144531,144.88040161132812,195.00669860839844
125.47549438476562,144.89064025878906,194.8555450439453
125.60777282714844,144.86508178710938,194.98170471191406
125.7125473022461,144.953857421875,195.06629943847656
125.36302947998047,144.87774658203125,194.8588409423828
125.68791961669922,144.9696502685547,195.0735321044922
125.68639373779297,145.00311279296875,195.11367797851562
125.532958984375,144.72402954101562,194.91064453125
125.6200180053711,144.96083068847656,195.08860778808594
125.54075622558594,144.8932647705078,195.04527282714844
125.45051574707031,144.7781982421875,194.96209716796875
125.87010955810547,145.0129852294922,195.325927734375
125.77008056640625,145.00714111328125,195.25003051757812
125.3910903930664,144.8199462890625,194.94432067871094
125.74884796142578,144.9966583251953,195.26300048828125
125.67542266845703,144.9241180419922,195.16297912597656
125.35031127929688,144.82025146484375,194.8832244873047
125.74769592285156,145.0540771484375,195.2483367919922
125.64744567871094,144.9624786376953,195.14755249023438
125.37305450439453,144.9188232421875,194.9851531982422
125.67623901367188,145.04574584960938,195.20492553710938
125.522705078125,145.00314331054688,195.10972595214844
125.35497283935547,144.94183349609375,194.93646240234375
125.76554870605469,145.11251831054688,195.2291717529297
125.697998046875,145.1588897705078,195.22911071777344
125.47404479980469,145.0412139892578,195.001220703125
125.72705078125,145.13270568847656,195.19558715820312
125.74691009521484,145.13165283203125,195.18345642089844
125.35319519042969,144.94508361816406,194.87548828125
125.7040023803711,145.07896423339844,195.18382263183594
125.69247436523438,145.03976440429688,195.14715576171875
125.46597290039062,144.89659118652344,194.89547729492188
125.67581939697266,145.07986450195312,195.18731689453125
125.54660034179688,144.95372009277344,195.0826416015625
125.33650970458984,144.88369750976562,194.90451049804688
125.68639373779297,145.05450439453125,195.23391723632812
125.64143371582031,144.99148559570312,195.15640258789062
125.34307861328125,144.77291870117188,194.8724365234375
125.50238037109375,144.84158325195312,194.98728942871094
125.29962158203125,144.80540466308594,194.87106323242188
125.51773834228516,144.90504455566406,195.03854370117188
125.55152893066406,144.9064178466797,195.0924835205078
125.39486694335938,144.87489318847656,194.91757202148438
125.7149658203125,144.98477172851562,195.15753173828125
125.723876953125,144.96926879882812,195.15072631835938
125.36830139160156,144.83255004882812,194.89468383789062
125.72518920898438,144.9513397216797,195.21612548828125
125.7200927734375,144.96165466308594,195.19407653808594
125.4184341430664,144.8289337158203,194.97254943847656
125.78739166259766,144.93614196777344,195.2609100341797
125.76576232910156,144.91864013671875,195.24856567382812
125.36890411376953,144.7354736328125,194.9553680419922
125.51667022705078,144.8963623046875,195.1111602783203
125.71907043457031,144.9786834716797,195.26580810546875
125.42359161376953,144.92935180664062,195.01434326171875
125.72705078125,145.0846710205078,195.2574462890625
125.61296081542969,145.00772094726562,195.17079162597656
125.55933380126953,145.12539672851562,195.1587677001953
125.72261810302734,145.15289306640625,195.21714782714844
125.80838012695312,145.1898193359375,195.29937744140625
125.34098052978516,145.0298309326172,194.88986206054688
125.64305114746094,145.23118591308594,195.2147674560547
125.63993835449219,145.1731414794922,195.15647888183594
125.5847396850586,145.08139038085938,195.10443115234375
125.72032165527344,145.2703399658203,195.23550415039062
125.70828247070312,145.30564880371094,195.23947143554688
125.63571166992188,145.2083740234375,195.19842529296875
125.8960952758789,145.20623779296875,195.33920288085938
125.91014862060547,145.27108764648438,195.33192443847656
125.67725372314453,145.17324829101562,195.15447998046875
125.86812591552734,145.2055206298828,195.29725646972656
125.89200592041016,145.1813507080078,195.32803344726562
125.61597442626953,145.1428680419922,195.10906982421875
125.89860534667969,145.16976928710938,195.29373168945312
125.92694854736328,145.2069091796875,195.32034301757812
125.66053771972656,145.05035400390625,195.0709228515625
125.94148254394531,145.2151336669922,195.34632873535156
125.77224731445312,145.09161376953125,195.1690216064453
125.51521301269531,145.04595947265625,195.013671875
125.9815444946289,145.29798889160156,195.4270782470703
125.78572082519531,145.17738342285156,195.26034545898438
125.56543731689453,145.0315704345703,195.0532989501953
125.78805541992188,145.1238555908203,195.21450805664062
125.8660659790039,145.18417358398438,195.30697631835938
125.43380737304688,145.01795959472656,194.98068237304688
125.71617126464844,145.08151245117188,195.19505310058594
125.69966125488281,145.09671020507812,195.22384643554688
125.53257751464844,145.1050567626953,195.07009887695312
125.75027465820312,145.15394592285156,195.25502014160156
125.870849609375,145.26539611816406,195.3273468017578
125.59041595458984,145.16712951660156,195.09579467773438
125.89507293701172,145.36746215820312,195.4177703857422
125.81866455078125,145.32545471191406,195.33274841308594
125.62153625488281,145.1669464111328,195.08743286132812
125.857666015625,145.349609375,195.32272338867188
125.87959289550781,145.32887268066406,195.27626037597656
125.50687408447266,145.17263793945312,194.9717254638672
125.55577087402344,145.1633758544922,194.99012756347656
125.6166000366211,145.324951171875,195.05810546875
125.75020599365234,145.2961883544922,195.16603088378906
125.67791748046875,145.33799743652344,195.1220245361328
125.7087173461914,145.3936309814453,195.0706024169922
126.010986328125,145.52110290527344,195.33157348632812
126.03038787841797,145.4847412109375,195.29774475097656
125.70416259765625,145.36752319335938,195.0695343017578
125.97411346435547,145.4532928466797,195.2700653076172
125.98790740966797,145.48971557617188,195.3115234375
125.72797393798828,145.2945098876953,195.0668182373047
126.08991241455078,145.48204040527344,195.4054412841797
126.03388214111328,145.42481994628906,195.35987854003906
125.66985321044922,145.23683166503906,195.0472412109375
125.93751525878906,145.2793426513672,195.25567626953125
125.83151245117188,145.21543884277344,195.2286834716797
125.68059539794922,145.15110778808594,195.06993103027344
126.05262756347656,145.32325744628906,195.39414978027344
125.91243743896484,145.2607421875,195.27015686035156
125.66506958007812,145.16078186035156,195.05364990234375
126.03564453125,145.2680206298828,195.36167907714844
126.01534271240234,145.25502014160156,195.35723876953125
125.769775390625,145.1262664794922,195.08567810058594
125.88261413574219,145.17694091796875,195.20245361328125
125.72906494140625,144.85708618164062,194.997314453125
125.6303939819336,144.81430053710938,194.95184326171875
125.72111511230469,144.91732788085938,195.01824951171875
125.86434173583984,145.0870819091797,195.1790313720703
125.73226165771484,144.9947052001953,195.03501892089844
126.13581085205078,145.2506103515625,195.38421630859375
126.05552673339844,145.0995330810547,195.27601623535156
125.77628326416016,145.09756469726562,195.05368041992188
126.18475341796875,145.3226776123047,195.40086364746094
126.1036376953125,145.28741455078125,195.32464599609375
125.88749694824219,145.2847442626953,195.16310119628906
126.1509780883789,145.41281127929688,195.39076232910156
126.18663024902344,145.3818817138672,195.37890625
125.81224822998047,145.23406982421875,195.04541015625
126.27739715576172,145.58151245117188,195.478271484375
126.19490051269531,145.50238037109375,195.40223693847656
125.9050064086914,145.42724609375,195.13304138183594
126.25902557373047,145.55630493164062,195.4374542236328
126.18035888671875,145.55438232421875,195.4413604736328
125.86121368408203,145.38970947265625,195.11219787597656
126.19065856933594,145.53506469726562,195.4525146484375
126.03236389160156,145.39974975585938,195.282958984375
125.84353637695312,145.2869110107422,195.12294006347656
126.03441619873047,145.34718322753906,195.2915802001953
125.9188461303711,145.24481201171875,195.19178771972656
125.720947265625,145.1976776123047,195.0458526611328
126.02522277832031,145.2667236328125,195.3065948486328
126.08531951904297,145.34104919433594,195.3700408935547
125.70796966552734,145.0875701904297,195.0029296875
125.99832153320312,145.206787109375,195.2847137451172
125.97069549560547,145.24276733398438,195.28195190429688
125.64942169189453,145.08053588867188,195.00204467773438
125.95361328125,145.21568298339844,195.23541259765625
125.88135528564453,145.14151000976562,195.18414306640625
125.64901733398438,145.0657958984375,195.0032501220703
125.71156311035156,145.11109924316406,195.06837463378906
125.69273376464844,145.14329528808594,195.0982208251953
125.93169403076172,145.18373107910156,195.2277374267578
125.83087158203125,145.17523193359375,195.18252563476562
125.6242446899414,145.13412475585938,195.02684020996094
125.83772277832031,145.24880981445312,195.1810302734375
125.91282653808594,145.28041076660156,195.23379516601562
125.62950897216797,145.1534423828125,195.0365447998047
125.8790512084961,145.27699279785156,195.23822021484375
125.90851593017578,145.2937469482422,195.25010681152344
125.67700958251953,145.14031982421875,195.02540588378906
125.94581604003906,145.2477569580078,195.21974182128906
125.94782257080078,145.3110809326172,195.260498046875
125.67761993408203,145.16958618164062,195.0491485595703
126.04074096679688,145.29342651367188,195.32199096679688
125.77256774902344,145.20533752441406,195.1320343017578
125.6631851196289,145.21261596679688,195.03065490722656
126.00321197509766,145.40939331054688,195.29054260253906
126.01219177246094,145.39903259277344,195.26954650878906
125.61075592041016,145.29615783691406,194.9871368408203
126.06114959716797,145.46157836914062,195.29237365722656
126.04100799560547,145.45333862304688,195.29466247558594
125.91952514648438,145.3104705810547,195.16900634765625
125.9340591430664,145.38766479492188,195.21884155273438
125.93004608154297,145.36354064941406,195.23770141601562
125.76781463623047,145.22015380859375,195.0831298828125
126.07123565673828,145.28636169433594,195.3489227294922
126.0010986328125,145.23704528808594,195.24649047851562
125.73287963867188,145.17520141601562,195.07691955566406
125.97416687011719,145.21229553222656,195.2665557861328
126.08718872070312,145.334716796875,195.41488647460938
125.63539123535156,145.091796875,194.9532470703125
125.96017456054688,145.1883087158203,195.22987365722656
125.92364501953125,145.19834899902344,195.25997924804688
125.7078857421875,145.1221160888672,195.04368591308594
126.0026626586914,145.2996063232422,195.35638427734375
125.8659439086914,145.15196228027344,195.1661376953125
125.62368774414062,145.09072875976562,195.0131378173828
125.8725814819336,145.12164306640625,195.23411560058594
125.75547790527344,145.02919006347656,195.12696838378906
125.5202865600586,144.96165466308594,194.916015625
125.9676284790039,145.23033142089844,195.33956909179688
125.85861206054688,145.14981079101562,195.2371826171875
125.4471435546875,145.04112243652344,194.9145050048828
125.60543823242188,145.1890411376953,195.07894897460938
125.68656158447266,145.20204162597656,195.1180419921875
125.46186065673828,145.0113067626953,194.89230346679688
125.49620056152344,145.09722900390625,194.97274780273438
125.38673400878906,145.10159301757812,194.91954040527344
125.34637451171875,144.94570922851562,194.77406311035156
125.36921691894531,145.12876892089844,194.94212341308594
125.14674377441406,145.00045776367188,194.71612548828125
125.21197509765625,144.9703826904297,194.77345275878906
125.41320037841797,145.14654541015625,194.8863067626953
125.56305694580078,145.2936553955078,195.02565002441406
125.35755157470703,145.0246124267578,194.8426513671875
125.46656036376953,145.2154541015625,194.92266845703125
125.461181640625,145.2217559814453,194.95974731445312
125.35570526123047,145.0660400390625,194.78892517089844
125.32025146484375,145.1601104736328,194.84930419921875
125.10457611083984,145.08311462402344,194.6357879638672
125.41608428955078,145.18966674804688,194.950439453125
125.41191864013672,145.09521484375,194.88258361816406
125.18025207519531,145.05621337890625,194.69412231445312
125.53966522216797,145.151123046875,194.98513793945312
125.67430114746094,145.09121704101562,195.0485382080078
125.12422943115234,144.9196014404297,194.6456756591797
125.66230773925781,144.98997497558594,195.0214080810547
125.59146118164062,144.95643615722656,195.0086212158203
125.08019256591797,144.83120727539062,194.59353637695312
125.52749633789062,144.93112182617188,194.92510986328125
125.48029327392578,144.94032287597656,194.87826538085938
125.05802154541016,144.80453491210938,194.5493621826172
125.4417724609375,144.79342651367188,194.84072875976562
125.43272399902344,144.81541442871094,194.8630828857422
124.96406555175781,144.69528198242188,194.4937286376953
125.38927459716797,144.89918518066406,194.83396911621094
125.48860168457031,145.0314483642578,194.92742919921875
125.0538101196289,144.8452911376953,194.6168975830078
125.54620361328125,145.13206481933594,195.04638671875
125.4178466796875,145.03453063964844,194.8990478515625
125.13268280029297,144.9295196533203,194.67652893066406
125.4820785522461,145.0946502685547,194.93002319335938
125.57303619384766,145.19117736816406,195.0479736328125
125.216796875,145.04806518554688,194.72378540039062
125.67721557617188,145.24227905273438,195.13351440429688
125.59211730957031,145.19989013671875,195.03468322753906
125.2812271118164,145.15309143066406,194.78042602539062
125.48477935791016,145.1675567626953,194.91775512695312
125.73429870605469,145.35650634765625,195.12110900878906
125.48443603515625,145.37362670898438,194.94149780273438
125.80776977539062,145.4739990234375,195.25057983398438
125.46987915039062,145.25,195.0009307861328
125.59160614013672,145.4398193359375,195.02590942382812
125.74588775634766,145.4898681640625,195.16111755371094
125.73648071289062,145.51583862304688,195.19139099121094
125.53785705566406,145.3466796875,194.9688262939453
125.60399627685547,145.39862060546875,195.04393005371094
125.6307144165039,145.40420532226562,195.08364868164062
125.47496032714844,145.18084716796875,194.88134765625
125.5194320678711,145.2470703125,194.9477996826172
125.63411712646484,145.30519104003906,195.0218963623047
125.5050048828125,145.14369201660156,194.8825225830078
125.8128662109375,145.24166870117188,195.13453674316406
125.66677856445312,145.23439025878906,195.0718231201172
125.37784576416016,145.07054138183594,194.78732299804688
125.7217788696289,145.22817993164062,195.0635223388672
125.77996063232422,145.26055908203125,195.13967895507812
125.37361907958984,145.0618438720703,194.74766540527344
125.79814147949219,145.26495361328125,195.1640625
125.73078155517578,145.19105529785156,195.07464599609375
125.39783477783203,145.0099639892578,194.7877960205078
125.71247863769531,145.22000122070312,195.05824279785156
125.51920318603516,145.0816650390625,194.8966522216797
125.36756134033203,145.04335021972656,194.7651824951172
125.71192932128906,145.20556640625,195.0779266357422
125.62255096435547,145.13583374023438,194.9835662841797
125.45044708251953,145.1077117919922,194.83474731445312
125.4566650390625,145.07461547851562,194.8743133544922
125.38256072998047,145.0911407470703,194.81236267089844
125.52961730957031,145.175048828125,194.9286346435547
125.57280731201172,145.225341796875,194.96560668945312
125.40250396728516,145.12539672851562,194.76287841796875
125.7410659790039,145.30873107910156,195.04678344726562
125.69571685791016,145.27182006835938,195.02084350585938
125.4002685546875,145.1258087158203,194.7620849609375
125.6089859008789,145.2279510498047,194.93359375
125.62051391601562,145.22637939453125,194.92227172851562
125.34040832519531,145.06442260742188,194.68679809570312
125.82306671142578,145.40187072753906,195.13243103027344
125.78861999511719,145.3352508544922,195.05543518066406
125.55876159667969,145.28648376464844,194.89190673828125
125.63119506835938,145.23800659179688,194.93948364257812
125.78775787353516,145.33079528808594,195.0900115966797
125.51226043701172,145.19749450683594,194.8166961669922
125.80803680419922,145.26504516601562,195.0357666015625
125.74595642089844,145.26376342773438,194.9918975830078
125.48278045654297,145.1616973876953,194.76124572753906
125.74291229248047,145.2698211669922,195.04229736328125
125.6923828125,145.18582153320312,194.9683074951172
125.44007110595703,145.14988708496094,194.85751342773438
125.72517395019531,145.16146850585938,195.09681701660156
125.48716735839844,144.9858856201172,194.89503479003906
125.46505737304688,145.0156707763672,194.86830139160156
125.5416488647461,145.0784912109375,194.94834899902344
125.54934692382812,144.98114013671875,194.9004364013672
125.51630401611328,144.96035766601562,194.87342834472656
125.69560241699219,145.08152770996094,195.05575561523438
125.6032943725586,145.05780029296875,194.92784118652344
125.57635498046875,144.90577697753906,194.852294921875
125.82431030273438,144.9839630126953,195.02894592285156
125.87010955810547,145.0340118408203,195.0894012451172
125.55801391601562,144.97918701171875,194.85166931152344
125.94732666015625,145.1372833251953,195.2229766845703
125.9572525024414,145.14796447753906,195.23016357421875
125.64490509033203,145.05880737304688,194.9915008544922
125.99002075195312,145.21348571777344,195.28640747070312
126.0421371459961,145.27035522460938,195.29310607910156
125.70891571044922,145.07562255859375,194.97024536132812
125.95079803466797,145.16648864746094,195.14134216308594
125.92925262451172,145.24627685546875,195.17575073242188
125.75654602050781,145.14862060546875,194.97796630859375
125.97757720947266,145.25509643554688,195.1599578857422
126.05838012695312,145.34788513183594,195.27243041992188
125.6419448852539,145.2001495361328,194.917724609375
126.01657104492188,145.3225555419922,195.176025390625
125.92817687988281,145.3361358642578,195.16281127929688
125.6562271118164,145.15821838378906,194.887451171875
125.89208984375,145.30825805664062,195.1134796142578
125.96797943115234,145.32913208007812,195.15809631347656
125.70714569091797,145.2337188720703,194.93995666503906
125.98009490966797,145.26470947265625,195.2019500732422
125.8996810913086,145.19688415527344,195.09942626953125
125.63861083984375,145.048095703125,194.87786865234375
125.88151550292969,145.17398071289062,195.1275634765625
125.81822967529297,145.12330627441406,195.07960510253906
125.59984588623047,145.08169555664062,194.89114379882812
125.74544525146484,145.0897979736328,195.00860595703125
125.56153106689453,144.92320251464844,194.84486389160156
125.77057647705078,145.00364685058594,195.027099609375
125.76484680175781,145.0260772705078,195.03636169433594
125.6628189086914,144.9293670654297,194.9759979248047
125.95924377441406,145.0724334716797,195.1980743408203
125.98202514648438,145.0682373046875,195.2293701171875
125.62684631347656,144.91502380371094,194.9476776123047
125.8980484008789,145.03269958496094,195.19398498535156
125.8544921875,145.00537109375,195.1615447998047
125.62433624267578,144.84986877441406,194.9457550048828
125.88711547851562,144.95587158203125,195.18096923828125
125.83955383300781,144.90452575683594,195.1267852783203
125.5527572631836,144.82302856445312,194.9268798828125
125.9197769165039,144.9442901611328,195.1830291748047
125.88335418701172,144.97396850585938,195.21389770507812
125.602783203125,144.7943572998047,194.9293975830078
125.89935302734375,144.88632202148438,195.16250610351562
125.94144439697266,144.91751098632812,195.21286010742188
125.57433319091797,144.8378448486328,194.86883544921875
125.99504089355469,145.01409912109375,195.2263946533203
125.9249038696289,144.99246215820312,195.17642211914062
125.69390869140625,144.9663848876953,194.9928436279297
125.90261840820312,145.0749969482422,195.19862365722656
125.83206176757812,144.9861297607422,195.07879638671875
125.7458724975586,144.9174346923828,195.0294952392578
126.0824966430664,145.05908203125,195.30743408203125
125.99616241455078,145.0266876220703,195.28526306152344
