y,u,v
0.0,0.0,0.0
0.0,0.0,0.0
0.9837120627028039,0.696560180321665,1.0
0.9840225869217899,0.6965756725791449,0.9999355831618143
0.9842183642061704,0.6964608545791378,0.9997222606194726
0.9843633534171,0.6963551566389621,0.9995156024325401
0.9846641969492002,0.6963192607151583,0.999448690409154
0.9847513231311738,0.6962526645379998,0.9993560211258803
0.9849260334721515,0.6961850418606008,0.999283013270295
0.9850064005448473,0.6961532993146942,0.9991949711342605
0.9849290340113167,0.6961006398523432,0.9991592805105046
0.9848508146929706,0.6960116501776248,0.9991409140523508
0.9849980306198072,0.6961552733536187,0.9992585667722534
0.9850150389391811,0.6961157925751279,0.9991967082885139
0.984999294004719,0.6960280110122314,0.9991063446827042
0.9852064417533046,0.6962163659102555,0.9993088652840508
0.985207373499677,0.6961088597504249,0.9991672398354484
0.9852596934273331,0.6960564608612119,0.999047565699687
0.9851224740336104,0.6959396925107474,0.9988980440953865
0.9853326381136728,0.6961387624920539,0.9990571516327047
0.9854531650342496,0.6963492976914342,0.9992399634294286
0.9852378368683606,0.6961657357599188,0.9991078133676641
0.9853911170427734,0.6963820667375815,0.9993419817610489
0.9854804067714082,0.6966149954345217,0.999569343668222
0.985332448605936,0.6965667815078287,0.9995685540526521
0.9851624127891317,0.6964955423911198,0.9995378222146748
0.9849950774575762,0.6964368186811926,0.9995071693382545
0.9849386673212683,0.6963812060566104,0.999460724150438
0.9848745821216222,0.6963249933241952,0.999436419783199
0.9849163527852653,0.6962624952518441,0.9993911274341143
0.9849648983504977,0.6962384988346774,0.9993801833623166
0.9849463897615411,0.6962022475838672,0.9993558632027664
0.9849322556428415,0.6961617166166685,0.9993034011443076
0.9849157210928096,0.6961576343041725,0.9992949680500219
0.9849602080340131,0.6961361330722063,0.9992678210667316
0.984835369812425,0.696109538819815,0.9992481754313548
0.9848495039311247,0.6961109996086191,0.9992515076090593
0.9849396622368863,0.6961209803494216,0.9992524709400544
0.9850420595839803,0.6961586765967247,0.9992684843438103
0.9849763319839486,0.6961561419307456,0.9992418742991076
0.9849365669438528,0.6961621430090761,0.999232888473923
0.8207985065709448,0.5801411636814171,0.8327322354978183
0.6566072076842675,0.46414628158701593,0.6661881847235854
0.4923407545914161,0.34811224815928665,0.49964475634189187
0.3280981454321924,0.23207498064165283,0.3331132880040307
0.1641152615393561,0.11606079788614378,0.16660671396397297
-2.9671998385251586e-07,5.256558582998265e-06,5.798971838851057e-05
3.339898390208387e-05,-5.225281033261877e-05,-1.1341862574071711e-05
0.00028444725252820495,-0.00012690350497861338,-4.4772957508826104e-05
0.0005656226890755102,-0.00018692297405613727,-8.364345089892041e-05
0.0008686339791188094,-0.00025706759584975055,-0.00015496837250070537
0.0010587223465235668,-0.0002983946710130262,-0.0002340213494180735
0.0012356209754512358,-0.00031034892432923154,-0.00029013880155600837
0.0014182290513585572,-0.0003078145215560002,-0.0003459339150693651
0.00143613244384816,-0.00027909743157211015,-0.0003758033173743684
0.0011108978622660134,-0.00035130803863678436,-0.0004940905372547657
0.0007212252106146364,-0.00041700458045635123,-0.0005513125738384511
0.0007709515143287808,-0.000328725384281201,-0.0004032059606394527
0.0005014239602569686,-0.00036332519799457745,-0.0003925959839618016
0.00013348503848832882,-0.00044228201728263827,-0.0004426626997220186
0.00017515392945766518,-0.0004122868028972835,-0.0003419044190816737
0.00029023759123658757,-0.0003443740733787448,-0.00024333618109157975
0.00018038258829078093,-0.00036294276085309423,-0.0002461582671379163
-1.1742109933993173e-05,-0.0003962327778059786,-0.00023244966349484725
-7.876520591085207e-05,-0.00042531291548233887,-0.00020288136792801257
-8.369837305139914e-05,-0.00048171427828329284,-0.0001655467645565051
-0.00018153577796388692,-0.0004932982018983837,-9.02102449198191e-05
-0.0002413370499380729,-0.0005033668532342434,-1.910939867002831e-05
-0.0001750377682341735,-0.0004334432360639441,6.457967446286072e-05
-3.216314780002736e-05,-0.00041731867198311625,3.1327032646131865e-05
8.459028770411834e-05,-0.0003788814143347828,3.6856096336951594e-05
4.420724182229936e-05,-0.0002638874177913403,9.422447500693332e-05
1.0425908514966951e-05,-0.00023022391267242653,-1.6772487523603276e-05
4.4646092608718876e-05,-0.0002169445966951519,-8.863627788367076e-05
8.057763685040286e-06,-0.00019044764248902384,-9.939382493701943e-05
-4.05839591765965e-05,-0.00017357215400111206,-0.00010653984584386037
-0.00016958468310883124,-0.00014458747207453577,-0.00013696232998702639
-0.00010688710122399289,-0.0001346607760706563,-0.00015939811584737693
2.8746042553528327e-05,-8.357852695311471e-05,-8.166520069253201e-05
3.222772080654203e-05,-8.255360594292787e-05,-4.597229582483727e-05
0.00010023941547624664,-0.00010979139502469554,-8.547658731217893e-05
0.00014413116200991038,-7.609516472794e-05,-8.510581893459743e-05
0.00022687304740019303,-5.321938752517953e-05,-4.782648865297713e-05
0.00016780155568197488,-0.00010154184249185972,-0.00011203013063571264
0.0001509013259062716,-0.0001276451294690698,-0.0001688613952466909
0.00010308694469178066,-8.735911856760963e-05,-0.00018730751683807324
9.893075927174495e-05,-0.0001169582091424202,-0.00023296063250324728
9.537275151396274e-05,-0.00012524311890625226,-0.0002317921769295641
7.37083323304062e-05,-0.0001529709960502428,-0.00024583557757498845
6.161844060640266e-05,-0.00016206043634423638,-0.00024626372468385116
6.404940374074103e-05,-0.0001373813526498484,-0.00019997224869746806
0.00012563345220155105,-0.000142511572741676,-0.00019140842916822175
1.7994987896831086e-05,-0.00013232614603621206,-0.0001505223104327596
-6.0699328081441716e-05,-0.00010503220651444707,-0.00010331435397645264
-5.148135592053135e-05,-6.775401678881718e-05,-8.579067883988521e-05
-6.983482928492966e-05,-4.539508684405431e-05,-5.1035135388291515e-05
-0.00014993483644806297,-3.5311520546908503e-05,-4.9812985957178636e-05
-0.00038284212603223027,-3.556647864123065e-05,-4.794317628728796e-05
-0.000348985165100594,2.071819652635374e-05,-2.5174699067858707e-06
-0.000471149572899378,5.386599494137772e-05,4.208510611029968e-05
-0.0006840351946254398,8.59736941818724e-05,6.477795570636637e-05
-0.0008003225814737482,0.00012489481070448143,8.969506462674848e-05
-0.0008295339708035905,0.00016493849736092477,0.00014899238639906373
-0.0007530500520099852,0.00020823303131867988,0.0002020649054280691
-0.0007871202091464132,0.00019260083641299704,0.00018729874333226485
-0.0007805409567486787,0.00018594674600671667,0.00014264422815796996
-0.0006411836350025401,0.00015696776685915112,0.00013081385675036761
-0.0006217896237871455,0.000143006047558215,0.00011181324955895196
-0.000699422170029895,9.451443939013678e-05,7.459884322313738e-05
-0.0007192431000638098,6.762004534782857e-05,6.16249330002302e-05
-0.0007162264176459364,6.343543376709121e-05,6.91443543368658e-05
-0.0006472582353160566,1.2994966636847244e-05,7.911561975213431e-05
-0.0006469095761749949,7.335177703364618e-06,5.9067104964843304e-05
-0.0005821151262767675,1.5053669898322659e-05,5.2464865980478865e-05
-0.0006450797736944142,-5.617184787582924e-05,-5.992708405547881e-05
-0.0007749892574114614,-0.0001476264391985743,-0.00022475775502319448
-0.0006427109269849642,-0.0001274907157574298,-0.00024093294223653705
-0.0007127564958921179,-0.00015803146676642281,-0.0003345004570880651
-0.0007602580138711276,-0.0002640256882513516,-0.00045948080947864916
-0.0004810145034176602,-0.00025452950820360905,-0.0004807549831003177
-0.0001866070400919759,-0.00020397077420847938,-0.0004770409824012619
3.537653223365539e-06,-0.00021048519039381912,-0.0004806839176999755
0.00010025783983985613,-0.0002133879926992403,-0.0004998324462082623
0.0002794059957904512,-0.00020454833413043597,-0.00050587388266747
0.0003214954886531844,-0.00020173581120472452,-0.0005680011866408787
0.00029576016253169714,-0.00017922720524098755,-0.0005680726029823946
0.00013817570591233093,-0.00018348884820695808,-0.0005544192724292128
6.339946239092372e-05,-0.00016941860063423084,-0.0005737671350017022
0.00019041860218315092,-0.0001086450486865907,-0.0005244979309670001
0.00019186412508579332,-3.484748979623044e-05,-0.0004602939380449735
0.00010821435726174958,9.613666071058432e-05,-0.00031987414468378833
0.00012678892298569657,0.0001625745638147274,-0.0002107952461083829
0.00011706121010578739,0.00023585843390918108,-0.00014486392525926502
8.766627902313877e-05,0.0003193822141832278,-7.146898250362071e-07
-0.0001503205197869306,0.0003504875403246397,5.823151622270825e-05
-0.0002425418278272146,0.00038006969803206354,0.00010757897993298608
-0.00022043820691606492,0.00037815338877997663,0.00018062719364777858
-0.00017592196220178138,0.0003734779872556104,0.0002519579057619851
-2.1574227538198875e-05,0.00039045437106643673,0.00033736693707614516
-1.0688411822872353e-05,0.0003649906727007781,0.0003840223381041673
0.00012100262008951515,0.00035005211120619145,0.0004481675485339833
8.284049960027504e-05,0.00033720594323632556,0.0005027640256136762
9.550119564652741e-05,0.00031596958342539695,0.0005240325841916274
2.8560219689682483e-05,0.00024533057454959685,0.00046514358140551857
-6.060720626715946e-05,0.0001438236506141489,0.000388344167324219
4.4577834728352754e-05,0.00011711709734178712,0.00034700954694547747
8.466907379051321e-05,7.777678268671059e-05,0.000286381635203669
0.00015031753679448513,1.1825896918934112e-05,0.00022667318692517119
0.00015449425221858302,-3.92843396837834e-05,0.00015776799837123124
0.0002086664425310276,-1.260454560531373e-05,0.00013705989137726307
0.00027361951742368296,3.573212244030534e-05,0.0001511875176822128
0.00021549205498692153,5.3614721719965724e-05,0.00011293836400970604
0.0003139925615084098,8.883069878367944e-05,0.00011120945685298114
0.0004504316395779632,0.00012699606547030397,9.998077250995561e-05
0.0005479460039882322,0.0001346909569334609,7.14447676972455e-05
0.0006178887474016642,0.00016953932408074284,7.098854536791349e-05
0.0005913546812643196,0.00013670921433010062,2.7089780029603085e-05
0.0007783624951260949,0.00010610178467319894,1.6750202818379405e-05
0.0008374587281330457,0.00010468310869880076,1.7069909388861756e-05
0.000817977508264739,7.65340155153008e-05,-3.002960653000617e-05
0.0008374948749788587,4.696247375014042e-05,-2.7677955892881806e-05
0.0008405452476599774,2.6815871161793582e-05,-3.6389696738999306e-05
0.0009256556288185365,6.830955521048883e-05,-2.402677349823774e-05
0.0007736870936026699,6.918374738100453e-05,-6.028925439689749e-05
0.0006250851282351396,4.105299082487936e-05,-0.00011023928252280363
0.0005095347159199152,4.633025488252663e-05,-0.0001092998154643673
0.0004230984824845289,7.578212602187199e-05,-0.00011875642699926693
0.00030023394888082115,8.786403385582527e-05,-0.00010754792172101256
1.317780652424962e-07,8.107798991277428e-05,-0.00010547351388437551
-0.00013852103112165626,0.00011639600285445161,-6.780832479330076e-05
-0.00040899998421980413,0.00021644108516692426,1.8749333970003646e-05
-0.0006173467201803494,0.00031159686786977423,0.00010914469987226263
-0.0009414681192796413,0.0003667330033235077,0.00017057556291365776
-0.0013090904929398898,0.00037145253558467853,0.00014844369131239326
-0.0014826641384372244,0.0003727113582733649,0.00013994707684093346
-0.00140240199687734,0.0004658379166970794,0.00022664791922750186
-0.001435229123636478,0.00042735951130438684,0.00018432750767777333
-0.0014091300479429972,0.0003513007566281401,6.548878518978821e-05
-0.0010594651115700135,0.0003884599776074783,6.999871838378397e-05
-0.0007400059537359047,0.0004175147598489932,8.539043148090506e-05
-0.0005961639664943811,0.0003962978772233125,4.2267244102176664e-05
-0.00045980648203402245,0.0003913007512223633,4.7609432107512245e-05
-0.00019267163860934162,0.0003812817579326734,5.074139839688449e-05
-0.00014042295182421747,0.0003496641467562842,5.001442566183399e-05
-8.560731255766573e-05,0.0003540655516775476,9.942225109677979e-05
-5.5272388006702894e-05,0.0003380705722852748,0.000132399404814183
-4.353413841620669e-05,0.00035357800793036183,0.00019303415989005134
5.9331713914142706e-06,0.0003207932572068667,0.00019985678935349977
9.240713090507115e-05,0.0002953663198321924,0.00020129950473522478
0.00013983056467720945,0.00028893095293818644,0.00026958089698995085
0.0002434965607862281,0.00026897649013786745,0.0002542128723599243
0.00031325488509580243,0.0002390425148263495,0.00025895214501034055
0.00034296759257906753,0.00019739327651096514,0.00023169637024143044
0.0002677307399758948,0.00014269134188627875,0.00014917066404744375
0.00018058753739870094,7.611315041602375e-05,8.702247912879924e-05
0.00010481901031153787,4.546159002137617e-05,4.446237538532574e-06
3.310138656717987e-05,-2.541395258419535e-05,-9.155364420920446e-05
7.731687548540973e-05,-0.0001073463065448291,-0.00019233140203385576
0.00018137539826641467,-0.00017732116099093175,-0.0002839311948859654
0.00028209647924024944,-0.00022038591681862327,-0.00032603332159800396
0.00025998373388400037,-0.00024095470053188308,-0.00036052337874830547
0.00029101176543524024,-0.00028749332619124225,-0.00036996279420993815
0.00038286967484376305,-0.0003012075448780286,-0.0003166232096481244
0.0002789150303762355,-0.0002652397660571208,-0.0003038481070795421
0.00017536975771467012,-0.00026525143482102254,-0.00023336105533187294
0.0001293732470119192,-0.000250415084674045,-0.0001284502741444026
0.0001468172587091577,-0.00022992333234695962,-6.331488578928342e-05
0.0001649717489495857,-0.00021109415946892282,-1.4376793884026434e-05
8.570645317941855e-05,-0.00018784568371683238,4.4380957248600324e-05
-7.352022835457954e-06,-0.00017073989068803783,0.0001249854410253648
-8.163221230881e-05,-0.0001255031656325313,0.0001831429088534028
-0.00015210312080296784,-0.00011580896754716329,0.00021310443297457092
-0.000305706160248355,-9.701322172837424e-05,0.00023876886916442022
-0.0004980637073309317,-6.243981626865753e-05,0.0002488733164058606
-0.0007662922560551019,-2.2283565525397958e-05,0.0002591081379516141
-0.0008361623548357344,-1.4215536838326572e-05,0.00025165434244313144
-0.0008906482857356529,-3.131782046573907e-05,0.00025902268399986356
-0.0010208171143003973,-2.6116359502041155e-05,0.00024977733849800726
-0.0010177521775991659,-4.8384132716042775e-05,0.0003139792257786398
-0.0009164881920529648,-8.510731043176146e-05,0.0003424117032171636
-0.0007894144810522565,-8.930227474888203e-05,0.0003491776558297955
-0.0007257226854299137,-0.00010178179788960232,0.0004014198502201508
-0.0006299070473154476,-6.9902209813303e-05,0.00041993422969001663
-0.0005309638296649842,-3.735136076830739e-05,0.00047383198472477386
-0.0004477197487721099,-1.240731718250508e-05,0.000433701791295883
-0.0003204389830211462,3.273439079874323e-05,0.0004232502641430144
-0.0001415438549940661,4.007141093762163e-05,0.0003953357745194199
1.436047515428059e-06,6.915347878478908e-05,0.00037421496178775306
2.8311753991070453e-05,9.264840232844967e-05,0.00035693536559830544
0.00013180175356368996,9.154302826505844e-05,0.000307150630332183
0.00018132486287107593,0.00010427496518318114,0.000319988200265886
-1.7446468279806125e-05,0.00011432326198368283,0.00030165157203358104
-0.00026780829777006454,4.941396688854099e-05,0.00018939701510564192
-0.0005410116000537256,-5.495075126541335e-05,4.63451698400476e-06
-0.0004015679470066675,-0.00010677567769316708,-0.00011313910183577933
-0.00043748685739716364,-0.00010859337273432029,-0.00022294725425821608
-0.000523370008993446,-0.00019023260384871827,-0.00041003069574335386
-0.00012364941147991718,-0.00019250792498013284,-0.0004212532386318428
0.00019074216909713024,-0.0001582978304187665,-0.0004092898608686555
0.0002214068020156676,-0.0001684165784753804,-0.00042713815573895795
0.00030785795041234017,-0.00022134222900915295,-0.0004279621634524846
0.00034863036450499563,-0.00033142788743607463,-0.00046005494773169325
0.00034235800935879257,-0.00019755900804627454,-0.00029917586401632555
0.00010690324447562155,-0.00026811028185928467,-0.0003535621278836721
-8.408668844059734e-05,-0.0002936253929713334,-0.00035397062233858274
-8.177469405255063e-05,-0.00019621016918281733,-0.0002489696495057547
2.7984502204180973e-05,2.357923694036198e-05,-1.85573696525626e-05
-1.3798268877607546e-05,0.00017983389320411046,0.00013268103436710383
-0.00010067545874174878,9.645856065775409e-05,7.241932877985653e-05
0.00012379961390782788,0.00024116114113602582,0.00023772008421749338
0.00037484437313162563,0.00031117056319736666,0.0003774262405752806
0.000329304435698439,0.00024391216178107887,0.00039621400250307813
0.00021304652783247062,0.00012382935609510677,0.0003005529535708389
0.0002774066891672988,6.729174074118339e-05,0.0002827613355513529
0.0003051522010591408,5.368683994288752e-06,0.00027228296147024006
0.00022128186728542627,-6.345087513825521e-05,0.00022923241872337003
7.880170369689742e-05,-9.165146880438006e-05,0.00020933147431177653
0.00014059456160912443,-9.97386237355256e-05,0.00020703983445814652
8.648536507167838e-05,-9.8540952386324e-05,0.00019569130401871914
-2.8943270976336978e-05,-9.667877566813386e-05,0.00020616301023541767
1.917169056550346e-05,-0.00013829607841955193,0.00018920241873504644
-2.4007296314872544e-05,-0.00015938820178557815,0.00018680830432698574
-3.814896023005694e-05,-0.00023636870103711644,0.00013963123061300678
-0.0001502298017316951,-0.00030623932622856806,6.548931159966607e-05
-0.0002035816692025818,-0.0003519599101574089,1.4411536968910107e-05
-0.00026104462626941343,-0.00041723295482548557,-0.0001089486997426204
-0.000226058515071998,-0.0003367842885212904,-0.00011683397629170222
-0.00016873996991877293,-0.00040088159560703956,-0.00021705742398596574
-0.00016516599437994885,-0.00040150047874300076,-0.0002668193481369865
7.869326315851709e-05,-0.0003163837806593184,-0.00022914170066813452
0.0002907657563173132,-0.00030390039717604245,-0.00024745937812506956
0.0006075151289850802,-0.00032787189758533427,-0.0002563874736371286
0.0006426268767932016,-0.00034634416422449615,-0.00029085647437254876
0.0008621117545121237,-0.0002331768994329541,-0.0002532086568253278
0.001076670834836319,-0.00016721188832153212,-0.00021657979430152004
0.001153651509558444,-0.00018980200015822923,-0.00027346054148808137
0.0012434962502041668,-0.00013498021943619972,-0.00022593954632664766
0.0012736032390605798,-3.415876954932826e-05,-0.00016672241440353921
0.0012893315038612178,-3.463148607146256e-05,-0.000123341812347921
0.001048608248426208,-9.947875247795077e-05,-0.0001460850218696809
0.0008580566398865306,-0.00013601654600440806,-0.00015251670389265928
0.0007330834817711801,-0.00013204179669672596,-0.00010605800487662667
0.00047090391472262463,-0.0001240315854164615,-0.00010229715365231845
0.00023924351585830303,-0.00012944264544639315,-8.657187184412589e-05
2.3450529602858378e-05,-0.00010714837624249706,-0.0001286776834290746
4.762241689610861e-05,-3.1327295852012085e-05,-9.572544647004969e-05
9.964369439656078e-05,3.595532044124802e-05,-9.687144186603957e-05
3.813685279062947e-05,4.8741740833499804e-05,-0.0001155061938440677
4.6286738291834606e-05,4.713583823526775e-05,-0.00015028279370866014
2.6106094498127467e-05,7.130965570026647e-05,-0.00015275323762148937
0.00015829633892254375,6.536700892163788e-05,-0.00013777598496416993
-3.2237020723169535e-05,1.2724303967363457e-05,-0.00018175336091922966
-0.0003591519042375095,-6.85059062813047e-05,-0.0002776605944399827
-0.00026736628852155403,-1.693655209116181e-05,-0.0002210114678189988
-0.0003345176531603908,-4.275487558371452e-05,-0.00023433070325217263
-0.00045796843245657,-0.00013218576993574805,-0.0003039807624948947
-0.00040704138666642644,-0.00016302525883563545,-0.0003104078822920289
-0.0003292972414232055,-0.00020139987364826143,-0.0003268785611979402
-0.00017634993384099852,-0.00013539862795385047,-0.0002647991605695396
-1.3850909915281559e-05,-5.8790564045761945e-05,-0.0002507099622223837
0.0002446341336175833,1.748708961428737e-05,-0.0002011289477728974
0.00039307256082555023,4.90938216434742e-05,-0.00020887367275186972
0.0006497051662323782,0.00013604409481405823,-0.00015968974719927256
0.0008624225121071521,0.00021511444327433884,-0.00011501908877334897
0.0009675147294060349,0.0001518825548542383,-0.0001421520344524705
0.0010931269497221178,0.00010570408163019722,-0.0001575300608805305
0.0011103253032426028,3.606437512574091e-05,-0.00018908134434830206
0.0010893306535324613,-1.8604307910284563e-05,-0.00023864972494848306
0.0009700172843515346,-2.0590629743899254e-05,-0.00025993302301713356
0.0009728453363818208,-3.2458464022950536e-05,-0.0002639990167918116
0.0009369237939400528,-6.860574878352219e-05,-0.0003145623130099616
0.0007864643018126462,-0.00012642104986526712,-0.00029980509989055253
0.0005967107314102443,-0.00016273643500748112,-0.00029489228728536346
0.00047596587693596873,-0.00012862820085443285,-0.00023107029282929442
0.00043541490614215286,-0.00015083657742917013,-0.00018220624931682513
0.0002609054784602332,-0.0002017673080931651,-0.00017010372374257494
8.588280065605007e-05,-0.0001984650480454631,-0.00012715126879770205
0.00012194401731969996,-0.00016147129539461277,-9.066401066658347e-05
9.03688699133058e-05,-0.00013576658880957328,-5.0986705634346814e-05
0.00012466696274428368,-0.00016617328064134297,-3.6783276234506416e-05
9.409567993225373e-05,-0.00017718771596076228,-3.7893300255270115e-05
0.00010101604625558436,-0.00015157118311497986,1.0430997146923856e-05
0.00018504728613664902,-9.011777216248063e-05,0.00010767250551102157
2.0995702530838694e-05,-9.55103200935094e-05,9.932311047596824e-05
-3.94593711357203e-05,-9.951551346893504e-05,7.402628420066818e-05
-0.00012050463587065279,-1.8627908643026951e-06,0.00013287019116456881
-7.200328911042133e-05,8.485902020279496e-05,0.00023702662627698404
-3.499295453241656e-05,0.0001672994479156179,0.0002979840709167215
-0.0001000669283412295,0.0001732563077731854,0.00028045881654957923
-5.007215532393455e-06,0.00021590212867240706,0.0003555538892904173
7.759288999461323e-05,0.0002550069624174679,0.000450562715762741
0.00015843215280092872,0.00019418849011820644,0.00047306974249496184
0.0002022872260789016,0.00013882169918335788,0.0004681839522895451
0.00031599450018471656,7.038992903013427e-05,0.0005047363098370562
0.0003353858793469568,2.6877197970923838e-05,0.0005274644289278844
0.00026257753329555475,-5.407813831605956e-06,0.0005082883516099475
0.0001372888798925099,-8.38483122734296e-05,0.000427944616440868
5.835873206304782e-05,-9.907201272420177e-05,0.0003922659246539947
-0.0001400188441226816,-0.00012438366622549458,0.0002872331917277872
-0.0002735273956075181,-0.0001482104915152997,0.00015288519115731866
-0.00028499401744218566,-0.00015708682333979488,9.39256493807455e-05
-0.00028057848717633554,-0.00015051476521729378,5.935803443533295e-05
-0.0002937101450426193,-6.893572035603565e-05,7.663306840176022e-05
-0.00019477271790551865,-8.536481284206207e-05,-4.976332786300276e-07
-6.988711938331263e-05,-6.623067288330097e-05,-2.39511458729926e-05
-9.412533438423921e-05,-7.065866152786957e-05,-4.00649185419115e-05
-2.990361897906784e-05,-8.726050435479336e-05,-9.961790028807227e-05
4.347167105108603e-05,-0.00013747084241380006,-0.00018733067889434857
2.692711922203259e-05,-0.00022336417127870277,-0.0002791750771034559
3.6629915344504726e-05,-0.0002159411707772547,-0.00028471501994147794
-9.005934061050245e-05,-0.00025791687126377046,-0.0003126781147905452
-0.0003890349932125151,-0.00029483157462328706,-0.0004057576472203031
-0.0004994879983499884,-0.0002237117776000089,-0.00033811865109898716
-0.000727950278686907,-0.00019792503873119018,-0.00032186502874042335
-0.0008710558178071071,-0.00020277573491054963,-0.00036434810109678114
-0.0010349331595776799,-0.00020527714930005894,-0.00036384923952686727
-0.0011604200942232892,-0.0002147785934522278,-0.00040440354425336087
-0.0011135264047633928,-9.697400415482234e-05,-0.00036652024579518293
-0.0010196011063228795,-2.6228923587916087e-05,-0.0003801395351439458
-0.0009348069223315382,9.459892825648369e-05,-0.0003862199259717666
-0.0009576431310214558,0.0001497758605134026,-0.00038337099299530324
-0.0008831560622684352,0.0002716489879014646,-0.00035852880981781897
-0.0008842036189250196,0.0003626456899290094,-0.0003176363741581748
-0.0009704698218079564,0.0003031337681928556,-0.00033202299436964794
-0.0010513364579542767,0.0002698239231154324,-0.0003215102281438837
-0.0011074805815508102,0.0001899837872089326,-0.0003049937515343583
-0.0011001829544541879,0.0001508786902608154,-0.00028019262836876367
-0.0010949851783634,0.00014798834633505403,-0.00021425200760395957
-0.0010854081943212795,0.00014060412473069085,-0.0001817672230607601
-0.001084564709422505,0.00017443695852064814,-0.00013494372165109568
-0.0010202313950178035,0.00022656878220087467,-8.231531751199483e-05
-0.0009182220123738837,0.00025765814056124474,-5.4238868961294526e-05
-0.0007612325749537387,0.0002907754071741731,-1.976776258448035e-05
-0.000504864052088215,0.0002738467512377681,-3.982119052561109e-06
-0.0002791431415404309,0.00025099360968140516,3.7296350884300446e-05
-6.715101369954572e-05,0.00024259367925007184,8.853327691842096e-05
0.00018707536986073536,0.00017919333950715534,6.492675437428902e-05
0.00029950487050437667,0.00011052143848654363,4.491403549257869e-05
0.00034578511640144245,0.000127545286965911,8.974946036652547e-05
0.0003978855309285218,0.00016637112320932288,0.00012300999833801118
0.0005056752504837321,0.00020465563411282587,0.0001330781232649343
0.0006633421780624033,0.00018299639129746095,8.00454359546521e-05
0.000717288538321692,0.00022247295850550693,8.92606005937038e-05
0.0008060709828210722,0.00025806496804934583,0.00012109860224917697
0.0009639856742178908,0.00020064701907037032,1.0877744089982835e-05
0.0009505099194335655,0.00016184767881591161,-7.613403136031827e-05
0.0010451946525820322,0.00013510699660289612,-0.00012599597348320204
0.0009674226075889286,9.825274270239963e-05,-0.00017544907021094282
0.0009953399047353232,6.53249838262273e-05,-0.00021918868414494742
0.0010346262623252072,7.299337930043108e-05,-0.00027013643541068123
0.0009950752957841413,0.00011330430696026957,-0.00028814089869378534
0.0009572284951129498,4.6607146744664213e-05,-0.0003214961905345904
0.00082577645351196,5.5270984245773565e-05,-0.00034913115624665795
0.0008641336967816735,0.00014273573582896355,-0.000274543192170723
0.0007692362938401757,0.0001486914551314819,-0.000288038775079587
0.0006366417662455194,0.00012664091393353198,-0.0002854523454138529
0.0004771827622635966,0.00013327929976465072,-0.00018610519553055786
0.00042960000161562433,0.00018038399205171028,-0.00014772672037537623
0.0004433254503907867,0.00015733318339795422,-0.00011313032832997097
0.0004561372262169425,0.00010107482874967746,-0.0001163805614851702
0.0005359966638362208,0.00010528848063534646,-5.098898674632763e-05
0.0004999712430781515,0.00010937333744821843,-6.123556479221757e-06
0.0005770091210619122,0.00013914851229472158,3.5862233539679575e-05
0.0007075680197179576,0.00019437299695735765,0.00012427812094426634
0.0006364126022596856,0.00023569103540894474,0.00021259434131628112
0.0005920193621038949,0.00023218400172296828,0.0002422958187092876
0.0005229409845344732,0.00022215211137903418,0.00033760031234570813
0.000543752618903569,0.00023448257264783415,0.0003855752487263756
0.00047973848465758946,0.0002171075207086026,0.00038862597234678536
0.00018885340865375222,0.0001502853380265212,0.0003186262011423044
-4.627357803265142e-05,8.109913406483163e-05,0.0002591837655768592
4.192595470505253e-05,0.00012654387895411447,0.00033810040220596453
-0.00018140470177910908,0.00011741662484655703,0.00027139648639065136
-0.0004928703179944599,5.347811822582266e-05,0.00021032340693730007
-0.0004935600910620591,1.7100616659661643e-05,0.00020056200379414555
-0.0005212533128564594,-3.189248513054357e-05,0.0002237333604257094
-0.0004506650148475261,3.384748554442193e-05,0.00027057230320653785
-0.0003772741079756214,0.00010158272703033858,0.00031440333707718386
-0.00021327762198911145,0.00015799084543194157,0.00038504181954122354
-0.00014214554205770164,0.00015115663493988482,0.00041742693705185103
-4.0349882027510175e-05,0.00018581514341111969,0.0004637398203924065
0.00010272038759792845,0.00024783076064876364,0.000507006717805218
7.898945673249175e-05,0.00013837381168619106,0.00045321301655546636
6.270267051961914e-05,5.0863613340560555e-05,0.00041040146412093533
6.705661077045876e-05,-3.292819755169806e-05,0.00037622567396798564
0.00015083499819765398,-7.924178277365946e-05,0.00034086388122973605
0.0002546475118626145,-0.00011159022702765481,0.00031987326733273687
0.00018555737779399757,-0.00017010363600822285,0.00027014503344684405
0.0001600815719907941,-0.00023230270726337968,0.00018928822362797055
8.797071969210263e-05,-0.0003023699467315274,8.51045906451962e-05
0.0001616725596296226,-0.0003570121337785997,-2.0206964311132203e-05
0.00020228476949727526,-0.00040444442879183977,-0.00014108324591041797
0.0001686304765606369,-0.00041122143602320216,-0.00018891377037747888
0.0003004295980721137,-0.00037647773680515574,-0.00017736415117268722
0.00039784306715852683,-0.0003231733340046927,-0.00014003674207641324
0.0005340505246615615,-0.0002687491685903715,-0.00011261111222469915
0.0004155509859274239,-0.00021957015620008573,-7.760499743309941e-05
0.0003169009788575483,-7.310410094985093e-05,8.863645335331627e-05
0.00031773955059307015,-4.8668306584942074e-05,0.00011452022720249383
0.00028952500705294536,-4.540464996467945e-05,9.706586276698956e-05
0.00013761086757591438,2.562442900242188e-05,0.00018280056663652294
0.00010115940535131778,0.00010278250402281679,0.000277882037740705
-2.8078729664563714e-06,0.00016863749536528356,0.0003515631722016934
-3.397154292549437e-05,0.00011979547335404054,0.000286564826016243
-5.742031782719108e-05,0.0001616375533379174,0.0003180303045920317
-0.00014061158221180458,0.00019372709141974152,0.0003489932367259377
-0.00012623075251369436,0.0001666774063147418,0.0002734742281580837
-0.0003430686633725689,0.0001147914162818555,0.00019912402610414514
-0.0004087781899807321,6.97806967510329e-05,0.00011835653057957781
-0.00042132430403406766,5.5893815459583846e-05,0.00010429189805056786
-0.0005597282965811807,3.475396422007755e-05,8.942606892313296e-05
-0.0007503815023232959,4.939712175738895e-05,0.00010944036703635944
-0.0010636616551195914,8.397438755966134e-05,0.00015690591363920172
-0.001305865001072482,0.00011200258182512115,0.0002109103545102363
-0.0014731448840675588,0.00015340309123695455,0.0002939533466377463
-0.0017522762691097357,0.00015205635801489138,0.0003392960556481242
-0.00171718171737394,0.00014867724205160174,0.00038659016793758763
-0.0016966804896596402,0.00010827866706332534,0.0004253355511268538
-0.0015902501371748573,2.1815323492873185e-05,0.00038792830312348796
-0.001450673477771273,-7.349469745102997e-05,0.0003503922600463839
-0.0012792381112366252,-0.0001609361992435925,0.0002904246423917172
-0.0011766512564060424,-0.0001870363277577703,0.00026244505335078894
-0.001250986368029049,-0.00021971798978260478,0.00024295804296911922
-0.0010472164193809951,-0.00022846710576676041,0.000168123894306553
-0.0007228328679130889,-0.00023162460295968223,0.00014704624722534584
-0.0003091301088298552,-0.00019714805700973752,0.00010199130922242526
-1.8452438517446907e-06,-0.000143031666197058,7.977433460870127e-05
0.0003268399577705008,-0.00015302319841239108,-1.2083223858647906e-05
0.00034595233943203327,-0.00022431188543212832,-0.0001575193572020324
0.00029151869863049774,-0.0003243647761640644,-0.0002626326309157964
0.000531353373344525,-0.00026039275474973024,-0.00023434088051891032
0.00038442276093467555,-0.0002888986664358704,-0.00027791941287686053
0.00021479421029397863,-0.0003959693094117283,-0.0003505489548700047
0.0003712328469860592,-0.00034984549513240317,-0.0002863102188630945
0.0005957100252770299,-0.00029028040594775617,-0.00024053076470674972
0.0006550634974884012,-0.0002661008857037467,-0.0002213885531235862
0.0006427104005741449,-0.0002723438496029033,-0.0002442163392469864
0.0006903786151729264,-0.00023627947447810366,-0.00022985358297225334
0.0005632977098969844,-0.00021621332494201997,-0.00024113999698679235
0.00048732037335840443,-0.00016652018508124316,-0.0002230000707664769
0.0003959664141545763,-0.00013926493672315222,-0.00019772096697338035
0.00022700535187625465,-0.00011326263280415004,-0.0002051005386184885
4.8670324491983976e-05,-6.683709764242625e-05,-0.00019754514590568538
2.1742678860073532e-05,-4.3464915450436975e-05,-0.00016533409476159118
-7.879766788375493e-05,-8.026003591660805e-06,-0.00015124261530245444
-0.00018755808817902053,1.8710116396451737e-05,-0.00013075735536919662
-0.0003045524441672538,7.081851481546398e-05,-0.00012137058094617928
-0.00039162247569988747,0.00012429865094926984,-8.880999330903043e-05
-0.00038167840815309556,0.00016078827792672133,-4.561714428994787e-05
-0.0005174168340069061,0.00019543959212178143,-1.9642125974715644e-05
-0.0004383261310122088,0.00024888893324761136,2.2302604034178704e-05
-0.0003415604976323364,0.0002592309670414027,5.611359179349659e-05
-0.00017975054489469526,0.00023911252740787728,4.103035517942316e-05
-3.9738017696195656e-05,0.00021773947636939488,4.742343377307958e-05
6.913347518683956e-06,0.00016939394708079142,4.596229402868639e-05
0.00012011684689039113,0.00016343875418909222,1.530748743665441e-05
0.00027110204751689705,0.0001202936330434897,-3.209576727071272e-05
0.0005109909425001145,9.287432011689892e-05,-5.706323611867061e-05
0.0005642206827635598,4.6647768077262866e-05,-3.099714880797053e-05
0.000645743577182938,7.008706759174525e-05,-7.749813611870488e-06
0.0007460551108811652,5.129904245900884e-05,-1.973003650809248e-05
0.0007084086970939322,9.152346333698689e-06,-2.5311390295412585e-05
0.0006859758942260271,2.025469218649483e-05,5.099565460980069e-05
0.0005679374909844742,-6.356677315774926e-05,3.783943092537099e-05
0.0005780321118994093,-0.00011766614336680734,2.1614585667741192e-05
0.0006054647605557701,-0.00015751663741452583,-7.890716124094966e-06
0.0006443903515670473,-0.00012918233551235128,-5.327097573462618e-06
0.0007452946233534561,-0.00012561722121462899,1.5265901047832308e-07
0.0007867641802595311,-0.00016958354255284085,-0.00010236611341032536
0.0008523779001786193,-9.285966836055169e-05,-0.00011448302753410123
0.0009005872646486054,-5.638206108723426e-06,-0.00015145195116374928
0.0009371798048550721,-2.5690230299279074e-05,-0.00019672254195308802
0.0009753863192860556,4.506511526965827e-06,-0.00020362378203328576
0.0009288974394081597,3.092538152716366e-05,-0.00022092320634633096
0.0008184353098237045,4.918067935521274e-05,-0.00018356702014912297
0.0006609108639887739,8.665758899987401e-05,-0.00014502676153648104
0.0003358598241594336,0.00010837543883780394,-0.00010671584238025955
0.00014222906583864496,0.00015216795701536272,-5.873160608296462e-05
-0.00014031556410653412,0.00015361207615707576,4.5330952512124084e-06
-0.00036473378443564877,0.00019269330916939423,5.422991998395806e-05
-0.0005618005987764238,0.0002578888837776533,7.56967598054149e-05
-0.0006460911835042441,0.00026658097196981874,9.772913984469427e-05
-0.0006214142931865435,0.00031015055535137375,0.00012599544707332422
-0.0007729450304366877,0.00033629797306538846,0.00014662266233856223
-0.0007061895264034563,0.0003497116114257666,0.00011416384737537934
-0.0006373822501799854,0.00033326935868055707,0.00011574079740303188
-0.0006087332426049332,0.00032079562605319965,0.0001400393741286264
-0.0008762971104895283,0.0002816205165235546,0.00010925296494099746
-0.0011414452811403621,0.0001801362282335629,4.635973386486659e-05
-0.0010433501106116934,0.00018272660597714606,5.820221271095511e-05
-0.0011940714041674821,0.0001278233193821564,5.828924589422176e-05
-0.0014273413905038872,2.415793741736768e-05,-2.3019224031904692e-05
-0.0011508304763328044,-7.409603357537446e-05,-0.00010436770114639982
-0.0009529496560746537,-0.00018083047578888902,-0.00022866828226553556
-0.0007261583777533009,-6.047253294476488e-05,-0.00015802348287543124
-0.0004515948310481613,2.241674735156979e-05,-8.095384479923231e-05
-0.0002740459098323253,0.00010045796351887557,-5.5221501670190556e-05
-0.00010421153273265688,0.00011191037227460419,-2.8564430972470496e-05
-0.00012059061623322245,0.00022995553111492356,6.104956645590232e-05
0.0001185699022549564,0.0003544740461315169,0.00020044461427842878
0.00020073080605531124,0.00021077278593163094,0.00012814969381799439
0.0003461181587026361,0.0001643705882967693,6.608748926097825e-05
0.0004791631181123203,9.931609167038028e-05,1.549945175503675e-05
0.0005603899944292518,4.87303352754783e-05,-4.693387211979324e-05
0.0005378682282063317,-6.86807622588896e-06,-5.2215698400460864e-05
0.00041887860140902997,-4.6606444863258245e-05,-8.865593053762277e-05
0.00028923846433488926,-9.740373049520117e-05,-0.00016180293393393578
2.3780939850897567e-05,-0.00017557461908635543,-0.00018636664601870756
-0.00014729664309476507,-0.0002278273416836808,-0.00021471823172944247
-0.0002638245994859873,-0.00024134126122086092,-0.000186580544103964
-0.00031156826623942707,-0.00020459149978183696,-0.00014863354999032288
-0.0004449187191406547,-0.00020477249721584094,-0.00010486024579119036
-0.0006340714798295313,-0.0001443746268109176,9.00249484696163e-06
-0.0009356991879263724,-6.290130270241583e-05,0.00011274534687156799
-0.0012208467417291465,2.786728815340322e-06,0.00023646792939416267
-0.0014284438693101264,4.8156284755845054e-05,0.0002630197180155934
-0.0016076574756173465,3.5381796333375224e-05,0.00024339496358379025
-0.0017085740303118867,2.2029309311540467e-05,0.000257407481485004
-0.0017368178773647062,6.559740119781405e-05,0.0002700209760676542
-0.0013879311510035176,-5.431239093761531e-06,0.0002025179692943688
-0.0012295158433356236,-3.231870206671647e-05,0.00011792294389852587
-0.0010054422463353695,2.3868499444983366e-05,0.00014753914280942742
-0.0007164143461511764,4.188384187528983e-05,0.00017039675885445861
-0.0004200126648371205,8.00021825679577e-05,0.00012030109052460342
-9.705779113976327e-06,7.174096127027886e-05,0.00014849071730634993
3.722195155033912e-05,0.00015255741296055136,0.0002486792464460842
0.0002593953825491936,0.00019692319204198529,0.0003144198312671623
0.00023779694013308106,0.00016204569685259574,0.00031088849496892007
0.00022461123746725267,0.00019642345312101997,0.00036259533000237493
0.0002114262366828303,0.00024224888045062436,0.0004412642028123915
7.951060300762947e-05,0.00023547713732462955,0.0004183358723072505
6.331734237279234e-05,0.00019160197271717895,0.00035448948750362226
-0.00012387682076364786,0.00012078942388660595,0.0002999724983917302
-0.00011173551629231282,9.272534597933075e-05,0.00030877443088414666
-5.987760147989581e-05,4.328918211897671e-05,0.0002728456941662039
-4.542711014143142e-05,-2.8050040297040536e-05,0.00024349814001774428
9.14839825688503e-05,-6.840737980566444e-05,0.00019710085554519404
0.00023734071780374903,-7.740697939453268e-05,0.00016339269328053915
0.0004858292282227347,-5.188599003288634e-05,0.00015552636750306204
0.0005572206530018415,-5.119525187894227e-05,7.788662698602026e-05
0.0006143059983570318,-4.5778752274938775e-05,1.4190093670070398e-05
0.0007047248772557985,-5.853490407097511e-05,-6.178478628594201e-05
0.0007156273626335728,-5.464841623596091e-05,-0.00013688687783236807
0.0007768567859693713,-8.394368028697887e-05,-0.00021348643144052847
0.0008441118534529813,-9.861070176197158e-05,-0.0003033376644800786
0.0009911721382876205,-0.00010645983146618169,-0.00033658504219332243
0.0009535020360332931,-0.00018622688406341476,-0.0003877793289868611
0.0007279474711650483,-0.0002564320430504002,-0.0005121894034660154
0.0009149191381810105,-0.00021091930348757278,-0.0004876897379759979
0.0008597862489246616,-0.0002060420235830254,-0.0005030918038104434
0.0006008383151980503,-0.00023237386039901532,-0.0005598770952481621
0.0006392331090745061,-0.00010351728517638945,-0.0005231080320944771
0.0007658318224429819,2.0192137086080757e-05,-0.0005213426271507656
0.0008023260993787472,9.759823913050326e-05,-0.00047991763965607963
0.0007790078742519504,0.0001137411398396472,-0.00048359215957852723
0.0007341698173248493,0.00014617924932912237,-0.00048419296929205253
0.0007513271108362687,0.00011773326069024178,-0.0004616708521289
0.0007596117573951618,0.00010013562489618005,-0.00044100713907761665
0.0006713281744666367,7.667570764234207e-05,-0.0004205115264070343
0.00044107820447890014,4.7425451679180177e-05,-0.00041160589107078595
0.00029622919417998,5.8038674553274426e-05,-0.0003424996137505404
0.000133295355280986,5.923862701351556e-05,-0.0002900407137540112
-6.736175332082859e-05,7.05726811681238e-05,-0.0002542962206702808
-0.00016772575258708423,1.9508417738665955e-05,-0.000203757665738981
-0.00034880197428896134,-2.423567068494812e-05,-0.00016947343504859227
-0.00039022941836433235,-5.011435590028619e-05,-8.282014506585836e-05
-0.0004550798432329116,-8.624760304968189e-05,-3.8519904077283965e-05
-0.0004891952716621346,-0.00013199599899311182,1.6988140309080117e-05
-0.0003857124663647486,-0.00017609251916505001,4.246482346427635e-05
-0.00041613407315874574,-0.00017786090710120704,7.459375458929789e-05
-0.0004933295233152962,-0.00016419722381070067,0.00010066440412395961
-0.0003353058649692781,-0.00018173098847871239,5.4071996869994725e-05
-0.00028122614741323075,-0.0001946753319849275,2.9378436890787635e-05
-0.00022279038396400846,-0.00020331135747238903,6.754547054610432e-06
-0.0002201825469422194,-0.00023338658623542257,-2.2032380039279362e-05
-0.00021779790792137303,-0.0003234151318388904,-6.883710614510196e-05
-7.384572544030735e-05,-0.00040782503625229344,-0.00014851686235601205
-5.664754738946773e-05,-0.00039137839675370905,-0.00014363791548465516
-8.879314817881968e-06,-0.00043517749506038876,-0.00019481781372866815
8.754187070371659e-05,-0.00046828212782495303,-0.0002510012426321644
-4.72576145005942e-06,-0.00038977881107965897,-0.0002554318633298875
5.335871080588786e-05,-0.0003488122392909924,-0.0002700174666653309
1.2583840131606012e-05,-0.0003032913403665866,-0.0002835904318996604
2.0555097043257503e-05,-0.00030269500514078815,-0.0002725428327268736
-3.533880615161975e-05,-0.00028300558996811827,-0.000193289293454019
-0.00026373037202748716,-0.00024304726952719072,-9.399425819946137e-05
-0.0002289079744592805,-0.00029044596201153745,-4.29131496369689e-05
-0.0002503276128161939,-0.000247019123578662,2.390025953742155e-05
-0.0003984417712315994,-0.00020682970898109362,0.00015833950457394474
-0.0005679669699668142,-0.00022015894621041832,0.00018949580478716242
-0.0006611416072051825,-0.00016866390361894334,0.00022997834223096656
-0.0007171555319670483,-0.0001612617840627311,0.00022736804862755116
-0.0008837619606158001,-0.0001455176392163446,0.0002706263480041999
-0.001071600274586812,-0.00016216536747935207,0.00029352993722249075
-0.0009771847126134891,-0.00018565292127907494,0.0003120906408067899
-0.0009815204039722474,-0.0002205591935684572,0.0003307694357863292
-0.0009330801208162073,-0.00022002409741837822,0.00036888172275881265
-0.00090460324943594,-0.00020468871023090001,0.0004463082670729452
-0.0008839632248517511,-0.0002030473626663783,0.00045208579646237703
-0.0008157002569606346,-0.0001854288459280221,0.0004835568900837657
-0.0008235253472575179,-0.0001892311081016283,0.0005143955893678949
-0.0006977337964714167,-0.0001565844523675577,0.0005453471159428382
-0.0005380342229465801,-0.00014832323107082015,0.0005291147254697426
-0.00034893743722711395,-0.00016189856515242396,0.0004320527230453087
-7.170516536563948e-05,-0.00015625588455503228,0.0004057823885080946
-6.505221551440821e-05,-0.00019157021262474074,0.00028648323240704817
-0.0001141150666793197,-0.0002397708035870359,0.00011499715500553358
-1.4041821412966901e-05,-0.00020205113102277338,7.811421174033777e-05
-0.00010738877031576541,-0.00021140421518160403,-2.7337192907518114e-05
-0.0002797807999802339,-0.00022035635010287248,-0.00013002020536740847
-0.0001760798853157447,-0.00012327188750356922,-0.00017935064847688872
3.2104891718636e-05,-3.557183047906778e-05,-0.00017138237455674142
7.125368072897334e-05,-3.426580632772055e-06,-0.00018644244911359821
0.00036670273472635094,0.00011765561515983732,-0.0001682053124432784
0.0006501462981307785,0.00019947066734004768,-0.00015708664787014937
0.0009415053189461512,0.00018421020589829123,-0.00017976089763201977
0.0011984941287095068,0.00016231127089012264,-0.00017265769143634746
0.0013899034352268975,0.00014490770505583728,-0.0001960304877725667
0.0015704009564517691,0.00014943325509158385,-0.00023307819748766832
0.0016248909231638888,9.803831820820658e-05,-0.0003039681286455894
0.0016351239900075393,2.708539327622826e-05,-0.0003613421223583472
0.0016028364338880896,2.4670748863164072e-05,-0.0004021947262992682
0.0015721642557531453,5.0878703771492224e-05,-0.0004125451826576942
0.001432399667844321,4.566583724883151e-05,-0.00042965931051865396
0.0013104596863377635,5.208102507806628e-05,-0.0004085607824931523
0.0012007218974361457,5.48038827682979e-05,-0.00036345302798102957
0.0010530016694564794,5.863211452097946e-05,-0.0003280803560955777
0.000910922104166222,6.268117542827076e-05,-0.00029963875421101316
0.000713938287195571,3.573861483507417e-05,-0.00029501704654595926
0.0007148321320200388,4.6877458473915664e-05,-0.0002695451010843702
0.0006409334146018251,1.98445307657159e-05,-0.00028156059347535375
0.0005060888335734235,-4.3821119807905966e-05,-0.00032459551938047293
0.00027787326423395534,-8.723892153003416e-05,-0.0003642193060239841
0.0001875049207305274,-6.062966644297014e-05,-0.0003025584016475864
0.00017591055664375986,-4.1733902651376775e-05,-0.0002388129121668727
0.00010159071092133017,-4.984553566537489e-05,-0.000269482809188895
3.33858236419594e-05,2.237867033400829e-05,-0.000174815447583341
7.579256649448992e-05,0.00014813126675243781,-7.668255097734323e-05
0.0002808609940803079,0.0002599570624254017,2.028206552649949e-05
0.00031028698337493005,0.00027693941222017767,-6.704011657389128e-06
0.00044199047366697735,0.00032751393852576235,2.3137490901496855e-06
0.0005517535302672059,0.00038563280292730224,9.281194048707166e-05
0.0006381502829241016,0.00036599322127044766,4.595738086449242e-05
0.0006706827953407811,0.00033353291481010076,2.3479131233205557e-05
0.0005859428316186299,0.000321499612200679,2.4075554193356075e-05
0.0006253664068478282,0.0003241264877321901,6.28821764574004e-05
0.0005627339243803236,0.00029629157381074855,5.756806367347542e-05
0.0004260781407036551,0.0002516715385154571,3.032281711153535e-05
0.00040983101073986016,0.0002139143153435109,1.8596324020234285e-05
0.00036980557297549817,0.000166158892090876,-1.1086553540458514e-05
0.0003140016859553918,9.777923656638984e-05,-7.285624939546887e-05
0.0003051023675433255,3.070937780145448e-05,-0.00013580843843439703
0.00030751087050185315,-1.3619903493934125e-05,-0.00017044150373737575
0.0003429291646212737,-2.7963182584360703e-05,-0.00018681163825966354
0.00036818352712469617,-4.152254888398135e-05,-0.00021001896626833623
0.0004002675378980963,-5.5027694914411835e-05,-0.000212865793601523
0.00038136993167098916,-7.811193062835694e-05,-0.00017889863743034473
0.0003538602516293952,-6.92164725597876e-05,-0.00015544582671550553
0.00028826460513274284,-2.5922289541323514e-05,-0.00011247915868886984
0.00010111273029665215,-3.6899086517765764e-05,-9.182825495747862e-05
3.705771151219377e-05,-8.412827486518866e-06,-4.9310264043767815e-05
-9.665070044672324e-05,2.6955720852379766e-05,-1.8429802870108113e-05
-0.0002893772612057197,7.570763895355856e-05,-1.4212729316467895e-05
-0.0004558120800714471,0.00010064466373377289,3.0416342689570827e-05
-0.0007216859951669889,5.2719560869862084e-05,-1.9234684340501976e-05
-0.0008619333013940982,1.084808963799736e-05,-6.476918219961672e-05
-0.0009042493261904519,4.1020353382330976e-05,2.0278556124176147e-05
-0.0009900557973417333,1.4250543128149173e-05,2.3995013405799552e-05
-0.001059106626101505,-3.8557893359552055e-05,1.3844242050867212e-05
-0.0009654364612259009,4.886149919554953e-05,7.960904174891763e-05
-0.0007939224840745038,9.351829548088395e-05,0.00014856739775135077
-0.0008794124071173939,0.00011592398821560587,0.0001747864950127615
-0.0008260919487996543,0.00013965474360951447,0.00016407755318394437
-0.000832890538855776,0.00015518656960404324,0.00016954116651719792
-0.0007751713954033384,0.0001531830516971616,0.00015827440515661092
-0.0005473680053916911,0.000129219622915096,0.00014920558260291423
-0.0004903875911725579,0.0001073207756422208,0.00012350166563363283
-0.0004036816601521499,8.054649090031207e-05,0.00010006043594740196
-0.00034877161795651116,7.688048128061655e-05,0.00011316261483228702
-0.0002794005562163794,8.873190910215895e-05,0.00010756915360648074
-0.00019414593861291797,4.7177951065971744e-05,9.36938533426987e-05
-0.0002919598305288981,3.5005676116074004e-05,9.688425118499041e-05
-0.00036894068072161,9.020743739043007e-06,0.00010864004778898592
-0.0003989492308367348,6.16663439532934e-06,0.00011315980731042834
-0.000448324418828191,4.264275017242403e-06,8.47380335504027e-05
-0.0004948462870898089,-5.276298972243683e-06,6.985658758121698e-05
-0.0005508595099712101,-3.049153163929023e-05,4.68180618355926e-05
-0.0005321940507214408,-6.525233919342765e-05,1.6420318979276778e-05
-0.000480666546157063,-7.604261142461809e-05,-2.3051510535162028e-05
-0.0002643274968690436,-0.00010471214900467368,-7.561990389076853e-05
-6.983570663598115e-05,-0.00015428649558974565,-0.00011659252939773688
1.5700715990046595e-05,-0.00023281060554498212,-0.0001864691205731382
0.00010414888989789068,-0.00017641310308658386,-0.00017739661314559007
0.00029096824884360686,-0.00011485388364791744,-0.00014020958015072143
0.00032062305118383036,-4.222890387967624e-05,-0.00010495956188258871
0.00028489610511171667,-1.2931358716677463e-05,-5.586635438522708e-05
0.00036922020463313684,4.7288848185978415e-05,2.9098211100678713e-06
0.00044745233229906927,0.0001567357953514588,9.947875247700947e-05
0.0005550546497579762,0.0001647709233901016,0.00010607274436638472
0.0005475506697934459,0.00017362444409949507,0.0001205385016054263
0.00045063816791739934,0.00016011613960603224,0.00015994926751567375
0.0003145407301842611,0.0002033290799545926,0.00019856936503540753
9.124148285324665e-05,0.0002568315007945636,0.00023972360212343372
-2.1694249105187527e-05,0.00023210188170295432,0.00026169386573876607
-0.00022073176843876775,0.0002571003210285336,0.00033017810145907685
-0.00041608880186595076,0.0002606749984478223,0.0003690552627145268
-0.0004763982353266781,0.0002806243726143018,0.0004076918544261216
-0.0004979166633651119,0.00029458933811262237,0.00044034842422199094
-0.0004002194590834427,0.0002913089240946185,0.00047171283200616096
-0.00045466555826463806,0.0003456524609860898,0.000521105040599356
-0.00047683164653902576,0.0003834565346814058,0.0005196872419760092
-0.0004628189531672252,0.0003857025523020085,0.0004799065850392318
-0.00029743274377877916,0.0003715987899347401,0.00045874558964766813
-0.00013484072068678716,0.000370678185915439,0.0004423608911052678
-8.365766398068318e-05,0.00034528371051460884,0.00042646908814694906
8.612442302060223e-05,0.0003086693242775028,0.00038826766234886366
0.0002927617290077878,0.00026883830741409085,0.0003647897594060006
0.0005177395235698339,0.00023920456148969005,0.00037258993294450555
0.0006521768384355499,0.0002163773895114611,0.00033681894387182197
0.0006802385474964922,0.0001467769005796154,0.0002556385671380279
0.0007129288075565483,9.458901419374363e-05,0.00014115308302135897
0.0006688687851715967,4.257940545719318e-05,5.2868447271195554e-05
0.0006705490871037901,1.9163969883215994e-06,-2.4795683593405405e-05
0.00043104727922036964,-8.273802504678568e-05,-0.0001484040350642569
0.00027114802069109806,-0.00016150595074420303,-0.0002908361198381321
0.00044470833045866286,-0.0001399869085596566,-0.0003065050757357405
0.00046536520017494506,-0.00018008314851942185,-0.0003670027886438226
0.00048576676085761405,-0.00025759935806903423,-0.0004904612886251132
0.0007443941106626914,-0.00025684281861729165,-0.0005380835300515763
0.0010425962909474573,-0.00021522911300254907,-0.0005723517929599819
0.0010800817986273401,-0.00023826746327758664,-0.0006264955571136073
0.0012132048422448373,-0.00023458460852579776,-0.0006380458781979223
0.00135921125349871,-0.0002176380546366025,-0.0006335173451697304
0.0013404636742298682,-0.00020097602555653885,-0.0005982350403992815
0.0012972464348622852,-0.00014916899708157549,-0.0005084873347339177
0.001140595830257638,-0.00011261523577313506,-0.00044182588268859964
0.0009319207896895062,-9.101205566247408e-05,-0.00038968160062871334
0.0007586010494648552,-2.7461513491646888e-05,-0.0003264893684576904
0.0005326027206469384,1.9666428586981403e-05,-0.00025349467313162346
0.00027781290251022866,3.3358538037248145e-05,-0.00021074172771965742
6.609345524586923e-05,4.7736911153732025e-05,-0.00019722772044718386
-2.1349801246913678e-05,4.514258533229979e-05,-0.0001636178214532303
-3.289117335483356e-05,8.025336805407629e-05,-0.00012021686486319545
-0.00010267301066279817,6.652677872292351e-05,-7.385204236448937e-05
-0.00021030831650636843,9.767676201290047e-05,-2.6886059212025606e-05
-8.305281845401535e-05,0.00013326017352151788,8.157606187257783e-06
-8.199455812081547e-05,0.0001520307393760484,6.221188057410768e-05
-0.00017480667407753268,0.00013005959841060587,7.762886136983942e-05
-0.0001706817223409986,8.713697338548138e-05,0.00010311993307550267
-0.00021122918373060845,0.00010667574745659748,0.00014608028417701505
-0.00017547960201303852,9.242695902866868e-05,0.0001542540336159015
-0.00013361313168066115,6.558257397182132e-05,0.0001349491612242262
1.2899686359532683e-05,3.9018765648139105e-05,0.00011054038926097226
0.0002457517028538128,6.550396335507198e-05,0.0001309351066076988
0.0003907159970261145,0.00014465915162193183,0.00016986754095209462
0.000482215596434833,9.474448072608063e-05,0.00012454781852928783
0.00047534646738824705,3.471369382582864e-05,0.00011317928449379352
0.0004345326423453522,3.336862756963373e-05,0.00018427942886311966
0.0004816096980874682,3.668545163838952e-05,0.00025711128791102935
0.00040345284710748984,2.996538446466513e-05,0.0002805623439247069
0.000243303368176562,-4.589719461135257e-05,0.0002781371713046727
0.00017639555607402584,9.804305589616598e-06,0.0003083555836909702
0.00021436992352767163,4.606845345414461e-05,0.00036440811188121673
0.0001409209360440211,3.2921529687283705e-05,0.0003406752508440315
-0.00023206959519969696,1.5954270323439418e-05,0.00029215109296681577
-0.0002652378358863136,1.7531132615798546e-05,0.0002719741340469601
-0.0001842922381820705,1.5540687234689255e-05,0.00023960603713901274
-0.00011034965323293244,-3.68314427835122e-05,0.00019328192370913997
-6.298377366172085e-05,-4.283866256865546e-05,9.083807703217548e-05
-9.46422693775302e-05,-5.07053392854236e-05,6.472566561457247e-06
7.583292462403222e-05,-1.6867592332213612e-05,-5.223535105441288e-05
0.0001998106407115359,-3.0073474061871835e-05,-7.72609005141166e-05
0.00017319480549346833,-2.276233576583405e-05,-9.906060716618027e-05
0.0002768608016034283,1.6097804886935756e-05,-6.773638204096577e-05
0.00015058653249904193,1.975504100082291e-05,-6.294113442490418e-06
0.00013335641888517733,3.094696435192286e-05,6.377409111106089e-05
0.00011990294880607598,1.762720250981248e-05,0.00013306759505608167
-1.6417160517185768e-05,3.159251894836535e-05,0.00018213220092309614
-5.047643850547016e-05,4.772655841640752e-05,0.00023380166082039543
-0.0002549117698735642,4.9785261676941636e-05,0.0003043478459986248
-0.00026129975983432235,9.270850084723742e-05,0.0003915243878988317
-0.00025710163705416954,0.0001548258030235539,0.000440828159548772
-0.00044436704106248,0.00013205381639991873,0.00039684481760882123
-0.0008951975242394354,8.0925769578763e-05,0.0003184631893954428
-0.0009360131039825505,0.00017483659173351577,0.0003723133920254242
-0.0010779621194988494,0.0001811351796637331,0.00031994643837541435
-0.001330949859434274,0.00012456562874584346,0.00017724149755442672
-0.0012913566045919173,0.00017411997173673107,0.00018391199441821597
-0.001328909843741347,0.00022818284416068513,0.00023437421984286465
-0.0012254933661525788,0.0002676181758881373,0.00025715533091254055
-0.0011541042224854528,0.00024342909252256137,0.0002382991356356727
-0.0010921711639424072,0.0002353744873005534,0.0002335305594753859
-0.001060444761286464,0.00022735795909516562,0.0002690593997736395
-0.0010296499295351417,0.00022344743185282454,0.0003113708623469729
-0.0009374495024391523,0.00021679939516578727,0.00032803999796603535
-0.000937822200987541,0.0001772414098191333,0.0003328606887550596
-0.0008128407957772012,0.00013961421001126793,0.00038336906282355473
-0.0006927241243555142,0.00012268423804828577,0.00040846848520640066
-0.0005520795537618703,4.213967731972218e-05,0.00041862838100831495
-0.0006055679369906653,-1.4516555840260503e-05,0.00039742334261524015
-0.0005266126969341207,-9.443977685123655e-05,0.0003732153084771182
-0.00042514569245174805,-0.00014602194035938897,0.00033929061607499366
-0.00044612823472246223,-0.0001652784707314717,0.0002748258745452821
-0.0004592995488387649,-0.00019390466718859818,0.00024141022098075042
-0.0004434621416192819,-0.0001696839114649362,0.0001389160143771514
-0.00013806375597162727,-0.00016111298539574976,8.772453510547141e-05
7.952481608750965e-06,-0.00013336405183593658,2.3091517723530716e-05
0.00012323582839210832,-0.00012150367503705771,-1.936944539724867e-05
0.00016254938385141016,-0.00013191484405944274,-5.818466569839711e-05
0.00031603099797076193,-0.00015576114653355436,-8.766627902408007e-05
0.00038030184501034267,-0.00010788798282591159,-1.0870374345103817e-05
0.00035726928524866796,-0.000133378879060988,-1.728503576351945e-05
0.00025132709065718323,-0.0001525147737199695,1.2353096914256209e-05
0.000204500255314841,-8.322925366594029e-05,0.00010106570430269548
9.90230565632031e-06,-4.566873250598359e-05,0.00012444411568357335
-0.00019797627600793484,-2.1020970229449345e-05,0.00017094668223241292
-0.000565955906845408,-3.695392093306849e-05,0.00020170694636943842
-0.0007557565032427079,-5.013971133230766e-05,0.00023917631079863391
-0.0008001651847696627,-9.16096191795563e-05,0.00026669774733942297
-0.0008698405117100541,-0.00015141018927327762,0.0002561532210202793
-0.000769209622381577,-0.00021936459294699445,0.00023435140872682167
-0.0008024743716358506,-0.0002526640852870932,0.0001609782243380618
-0.0004706042117463266,-0.0002489541203992973,0.00011515876299334835
-0.00036995156412062086,-0.000232392547968505,4.960891420031011e-05
-0.00018687673767699739,-0.00021365391767511692,1.0293954978196346e-05
-0.0001222944311628648,-0.00017281938715851437,3.760868770896248e-05
2.941124980486412e-05,-0.00017665472545113603,2.3112047728534207e-05
0.00010555142261971889,-0.0001719999416670667,4.565557224115264e-06
0.00011711841336742305,-0.0001582588760510948,4.8762621778735634e-05
0.00025216215298944045,-0.00015416314009007918,0.00010485603450746106
0.00027263162061130195,-0.00013855226480515787,9.008601207004244e-05
0.00032384380535857224,-0.00013652128582391945,3.363007805966601e-05
0.00032655341505338596,-8.756319032353685e-05,4.365328263214387e-05
0.0005665911087035847,-5.555121003776507e-05,6.565232334746889e-05
0.0005867152511161209,-3.5716593333847937e-05,2.2019044310450664e-05
0.0005697318484997067,-3.800332002516659e-05,-3.7945765823298606e-05
0.00048280114024778115,-7.307041068472297e-05,-0.00010512766226423103
0.0006099152093780319,-9.244266360477159e-05,-0.00011003187683325728
0.0008639345381880577,-6.062589383570787e-05,-5.867106888959244e-05
0.0008065484370368138,-8.863908540458814e-05,-4.611846244054676e-05
0.0008531368084757536,-0.00019871149583797454,-0.00013121252487877295
0.0007434927206227579,-0.00027968613384714926,-0.00019769078611057574
0.0006378402272095376,-0.0003568692133612159,-0.00025739818156837654
0.0006884737114788611,-0.0003908916426222814,-0.0003319621062369847
0.00043989711505591165,-0.000441986964264654,-0.00046080806551640583
0.00032834005188256567,-0.0004911221968583676,-0.0006031585566829687
0.0005947782789046461,-0.00040386292079297535,-0.000585461517061274
0.0008541434805929176,-0.0002791269105535088,-0.0005308904831507786
0.0009418906513438452,-0.00022557816560004576,-0.000516427884373828
0.0010010770759952127,-0.00019091755148835818,-0.00048182728104469353
0.0010671538615786341,-0.00019301889398947415,-0.00045766346537772824
0.000844986572034316,-0.00018772057351600422,-0.0004077276503317023
0.0006292718454563298,-0.00016436620154245318,-0.0003524315738579049
0.00039899467760011665,-0.00018225204701949798,-0.00031899468840884633
0.00017682984463742503,-0.0001640554439493073,-0.00027401590444104876
8.821936086600795e-06,-8.634884931282873e-05,-0.00019332930064427028
-0.00021003265293739726,1.4923471064596314e-05,-0.00011991189778247114
-0.00033432691713329224,8.477883035452946e-05,-8.568873069627372e-05
-0.00043572864672774425,0.00013635099206558973,-4.672716830977028e-05
-0.0005923232763639223,0.0001698537665477402,-2.8633390733301283e-05
-0.0007061354816039117,0.00020842262679072928,2.119503659786523e-06
-0.0008237092399505564,0.00022822627301702502,1.0774567656028813e-05
-0.0008673172512889641,0.00021266602086273586,4.3345157089328544e-05
-0.0009972351575725288,0.00020372213303928053,8.567171009453486e-05
-0.0010874173272718785,0.00019675500392599084,0.00012390331675354234
-0.001086507163724254,0.0002139575687302053,0.00015378114162506297
-0.0009893339132414638,0.00021429675248499412,0.000144273643753651
-0.0009208677509426475,0.00018393743758553084,0.00013452961215152637
-0.0009588403636960729,0.00016628549378792687,0.00011365287836603801
-0.0007999891882332635,0.00015328263099444016,0.00011929950704127877
-0.0006526686812008171,0.00011807419914713357,9.676896731160892e-05
-0.0005894652189404769,6.0209941899683485e-05,6.600905411387444e-05
-0.0005605777474639049,0.00010163668409458983,0.0001649573603991187
-0.00041325478385077357,0.00013859578139584992,0.00019467357728376582
-0.00023760620410504123,0.00017291712401839657,0.0002618693358652874
-1.764580234306749e-05,0.00017122287221032063,0.00027166390286275077
1.9045001134100458e-05,0.0002003841648194087,0.00029567698969192746
0.00020174765543827178,0.0002452936380880257,0.00032659851087653546
0.00038911272647821303,0.00020350533969781327,0.000205901910686559
0.0005495483971850821,0.00017415050353882674,0.000143806191335943
0.0006470078394447549,0.0001515882037167187,2.5365259624370415e-05
0.0006711618287852148,0.00016493858509621816,-6.692377988451926e-05
0.0008780579532092781,0.00014361229684675347,-0.00014555633037907734
0.0008310528402194972,9.648777643421382e-05,-0.000270070634113824
0.000759131495658503,8.60251069282626e-05,-0.0003543742036292995
0.0006790181527655996,4.8165760143059375e-05,-0.0004401592674254674
0.0006944753162202869,-1.0436524456289091e-05,-0.0005003472755601593
0.0006359012823110532,-5.895225976698755e-05,-0.0005626372403411384
0.0005361693264408833,-8.582989641343713e-05,-0.0006055151204824045
0.0005131397496716541,-6.648334986658359e-05,-0.000570470577733011
0.00047147401716346747,-6.953030088067238e-05,-0.0005000868778917653
0.000375922110649132,-7.475518710558458e-05,-0.0003957688347924766
0.0001991556107278791,-0.00010806380389266526,-0.0003396182188011742
0.00015725457278120488,-0.00011008855368407379,-0.0002495851987099794
-2.8161025152340616e-05,-0.00011302250193676189,-0.0001858935785582235
-0.00011850550471808726,-0.00013080797850171133,-0.00012505387437349385
-0.0002397409736663462,-0.00011786951324415249,-7.881539036689976e-05
-0.00024729671731844036,-6.846028404827736e-05,-5.6240807634777446e-05
-0.00013931029575124063,3.627493927737825e-05,2.9393351851132483e-05
-0.00028988349252145385,9.243915420244826e-05,4.1344622175833676e-05
-0.0005360835215479592,0.0001030214943342145,2.983167622767415e-05
-0.0007660243131731247,8.014861238860611e-05,-2.4676714848055054e-05
-0.0005689388989981534,0.00016658282791789193,4.5056517234436735e-05
-0.0007093823808273743,0.0001165463807538904,-1.9786186949031132e-05
-0.0009992939485683563,5.420035326820729e-05,-9.195582173899182e-05
-0.0008605011142202846,8.83905319706827e-05,-3.935987957373513e-05
-0.000644208389045757,0.00011025068808176643,-2.9245255064615806e-05
-0.0006383150493721246,0.00012573926068865953,-1.3838977946440903e-05
-0.000702759260897774,0.00010637411430855098,-3.1330717519042025e-05
-0.0007072669129807303,0.00014605606930004269,2.545755691112208e-05
-0.0007623622516293957,0.0001466934645339655,5.372386413975202e-05
-0.0007900214322193771,0.00019167303811940374,0.00013311251540958563
-0.0007836062443901423,0.00020804659430872146,0.0002033523297471026
-0.0008320091524090856,0.00019876931324384016,0.00022661422896331517
-0.0007571404361312812,0.00021587019311032334,0.0002734610678998418
-0.0007427964551603898,0.0002020524470484093,0.0002989414359279482
-0.0006436682919961908,0.00018596324019857767,0.0002757107703933546
-0.0003897889883463967,0.00015262268784753066,0.0002553350038191742
-0.00019262162962293948,0.00012333198602141566,0.00023372761242666646
-1.126816512151635e-05,5.395855543400961e-05,0.00018929962918599208
0.00011822615627620593,-2.3947285531378218e-05,0.000132238674178361
0.0002634559367497998,-6.260984682204834e-05,6.727910689093677e-05
0.0003702170504228543,-0.0001658748059563288,2.0263290222657666e-05
0.0003739800072876153,-0.00024594129832492093,-4.5988263606820414e-05
0.00041938921947719764,-0.0003017570295795159,-0.00013717622807134157
0.0004820248604067932,-0.0002609640854818569,-0.00013266734769804282
0.0005604647447034456,-0.0002794235428030092,-0.00018439576555719813
0.0006304643404373397,-0.00030912054570828875,-0.00022547086561859714
0.0007987830065822512,-0.00020441015140571804,-0.0002225078770600361
0.0009686212440244751,-0.00018694227576985693,-0.0003042134358821104
0.0009506043223626526,-0.00017096221133792902,-0.00034676529252965346
0.0009687137167808723,-0.00020517370966116602,-0.000367308106663838
0.001039806491403437,-0.00015202310642528915,-0.0003111371361381189
0.0010581618949395838,-0.00010386708487438303,-0.00024530583326180534
0.0008914519389157043,-0.0001645999277513072,-0.0002676563406409922
0.000800215018285478,-0.00011597619057775414,-0.00019131016589657912
0.0007027029349871899,-8.42972525922347e-05,-0.00011635266173434638
0.0006959425974192166,-5.619860706972134e-05,-0.0001281456580039106
0.0005992904932106227,-4.0188888186749235e-05,-0.0001287519072924491
0.0005387947104752304,7.743496692394948e-07,-0.00012080311055566699
0.0006002592637798709,4.9421599839300226e-05,-8.51231904784512e-05
0.0005077454470385224,7.356277986080928e-05,-4.630902299894106e-05
0.0005200134409412604,7.689399248003206e-05,-5.1498201052624684e-05
0.0004059236419596101,8.587121962744174e-05,-1.371263945621153e-05
0.0002718425314523044,8.695676556629415e-05,2.1238728657261487e-05
0.0002092742710501409,6.595378102492857e-05,5.2979344391202224e-05
8.888491905286961e-05,8.589797882227515e-05,8.613319652735188e-05
0.00012220950362099215,5.7581223932658606e-05,0.00010873743370957708
2.375830420450007e-05,5.637390172659716e-05,0.00017049888246771562
8.239989411269384e-05,4.611451436363897e-05,0.0002032540664764013
8.063097976665896e-05,3.2231932089330046e-05,0.00022059419985922106
1.6309246389624587e-05,-1.4776690303715562e-05,0.0001836733550461093
-6.697449075138609e-05,-4.952477627419554e-05,0.00014474811497506437
-0.00016787437578442006,-5.390512478057751e-05,0.00012381926656272117
-0.00010031434122008581,-7.936706844413313e-05,0.00010113378671247478
-0.00024264535520234228,-0.00011498996073124137,2.962935917102601e-05
-0.0003669903302641628,-0.00015168655472271348,7.522404327198506e-07
-0.0005354265613944365,-0.00011639108969214022,1.185230517259388e-05
-0.0006750353318306913,-8.239182248640887e-05,3.9849441227021476e-05
-0.001014482993669538,-6.352887160983328e-05,1.3938118568193728e-05
-0.001382102559807928,-6.092866753880347e-05,-5.144134873216266e-05
-0.0013799479621230254,5.559411248328584e-05,4.243411619253517e-05
-0.0015717676932680165,7.473842970972593e-05,-2.7790256774759106e-05
-0.0017093754023799574,-9.39721489657656e-06,-0.00012101367470824563
-0.0014376988656688424,-1.5040246434200554e-05,-0.00015348828198282483
-0.0010201954236425774,-5.717518605937428e-05,-0.0002168229958975884
-0.0008753622056550535,-0.000133349049139357,-0.0002802050867465409
-0.0006341141190701131,-0.00020305499561713755,-0.0003638906504780479
-0.00021644205025232786,-0.00023362224261602504,-0.0003961580275327263
6.51467939121994e-05,-0.00024638330757437274,-0.0004483519676378411
0.0003732263630949074,-0.0002488666485414462,-0.00045363168827805604
0.00047714766823848053,-0.00025687668435206515,-0.00044251460293550184
0.0006392618861754401,-0.0002564189705274517,-0.00045314124927371815
0.000821618864330995,-0.00025270707546790733,-0.00041906056392937885
0.0008819375977092912,-0.00024197891966160526,-0.0004033058031407289
0.0009211191996346462,-0.00025898004476022305,-0.000370190028023082
0.0008908967514342649,-0.0002752870977722189,-0.00030982883087384954
0.0007029045501624321,-0.00028021973850194683,-0.00025015214268967254
0.0005931836063938488,-0.0002534520338901003,-0.00017177262011768812
0.0004594483475057463,-0.00024260280369611253,-0.00010461318385350766
0.00025691019914660633,-0.00022777496385094568,-1.441662560086701e-06
0.0001854331449461035,-0.00020353850355118078,5.693602027833105e-05
9.051977422356376e-05,-0.00020833962942154644,8.527409478682656e-05
2.629104001280442e-05,-0.0002253661976884204,9.132097082104747e-05
4.4768044347456014e-05,-0.00016474451513644184,0.00015048511076624959
2.091077499084864e-06,-0.0001295890752670416,0.00016751518843638818
-1.790514719076447e-05,-5.882943067814023e-05,0.0001910041459960991
-7.580046265112937e-05,2.7173040604666167e-05,0.00023070987718903742
-2.7423699679965612e-05,0.00013383527686090685,0.0003015118978126404
0.00014372775618978049,0.00026327037709089287,0.00034662737300987447
0.00020911704981664222,0.0002558750131343884,0.0003037340514955618
0.0002062584659842603,0.00028447137967082517,0.0002835351588097733
0.0003458730269348193,0.0002616404350843927,0.0002733719290751811
0.00040754200293844327,0.00023694047044476888,0.0002615975326379306
0.0003664011015783045,0.00019749715482632514,0.00023109801710953138
0.00034839137419265666,0.00013877432225011018,0.00021317672666619698
0.0003548116506557309,8.65204590967944e-05,0.00020649622800531552
0.00045163273259513596,7.839040171918679e-05,0.00021915885422331638
0.0003859926921567401,4.74586155325477e-05,0.00021189930414519694
0.0004085353393239548,1.2560063929218104e-05,0.0001584525073353454
0.00042832626396659314,4.438516853421222e-06,0.00011598943857223073
0.0005090021640848734,6.9781837301375535e-06,9.625870018367357e-05
0.0005433337717103925,1.8867425365243815e-05,4.8981082087012444e-05
0.000590910917313706,4.1770663624476444e-07,-7.42747499011628e-06
0.0007070670525066499,-1.4923646534241835e-05,-7.785890270672457e-05
0.0007976047246820627,-3.345688904418419e-05,-0.0001367708920785219
0.000885106763667056,-7.601278150392839e-05,-0.00020492278737998634
0.0008972664925020005,-0.00016099954395788204,-0.00029589299341669533
0.0009152007677329902,-0.00021920798585866707,-0.00035798590524639397
0.0010079825273581983,-0.00031151966101395425,-0.00042326324893255204
0.001092233455836941,-0.00036671431575495926,-0.0005045985657869227
0.0011334319113980066,-0.0004106470345633366,-0.0005617061958492195
0.0010889635700277898,-0.0003996901534467266,-0.0005883286989307601
0.0010026764861996171,-0.0003243181888456335,-0.0005764867464954907
0.0008870088598392627,-0.0002704471052704163,-0.0005732926637793476
0.0006918832715098942,-0.00017701522882668643,-0.0005638986950810966
0.000316074514561454,-0.00012132487097785854,-0.0005267560560270302
5.7620704711149435e-05,-1.7911727320826706e-05,-0.0004471798271912478
-0.00024181117022019526,-4.21367820625701e-05,-0.00045616389767459995
-0.0006089138013662353,-0.00010054666366801048,-0.0004813475457188538
-0.0005790672101763338,-2.692527678557751e-05,-0.0003347857715148374
-0.0006488457135516205,-3.7114563832655794e-05,-0.00023597099799599734
-0.000700036315472249,-6.809767503133296e-05,-0.00017550855458361802
-0.0005102867808820484,2.130558277575698e-06,-1.765790978249496e-05
-0.0003037724794542969,0.00011179017523702873,0.00012339445338559502
-0.00029716866123747504,0.00014460440494192252,0.00018701237608573684
-0.00031532490618094725,0.0001715487202362808,0.00021084876449710838
-0.0003873882060748629,0.00020712046298099646,0.00021825360384082718
-0.0005220906563006975,0.00022408579217309224,0.0002104450077348636
-0.0006474761692135143,0.00021432877578237124,0.00017188965869128998
-0.0008630296387448595,0.0001793228364613583,0.00015013803085576257
-0.0010106691504673236,0.00014116141785258288,0.00014988465199201529
-0.0010631675312423436,0.0001072692751595959,0.0001950983904599507
-0.001062832383299756,9.500610668481714e-05,0.00023057125578879374
-0.0010171355755742443,8.269424525115472e-05,0.0002596234937143302
-0.0010587976232085796,0.00011226683983607083,0.0002881122970634382
-0.0010005815483579766,0.000128179436004332,0.00029412320172055023
-0.000831199357775439,0.00018067614981254245,0.00030112445977355235
-0.0007230522055714759,0.0002140750459802742,0.0002633936448552659
-0.0007108852824622392,0.00022746166193993877,0.00023566989125782867
-0.0006641907515950173,0.00024999009602727333,0.00016871435127992993
-0.0003800112664810266,0.00018808607779010074,0.0001036361661873877
-0.00031930351583118506,0.0001287018105707535,2.6755333967480105e-05
-0.0002747634071801614,0.00011432571856719177,9.554348394781822e-06
-8.376206870592103e-05,8.794825951629194e-05,1.1609454517699194e-05
8.916900518835808e-05,7.629467426178817e-05,1.4773005430805405e-05
0.0002782910586054935,2.7719191372534312e-05,2.8333512287357762e-05
0.00023104590248173527,7.922563952767856e-06,3.3122267512415695e-05
0.00039060001127132703,2.77973633146992e-05,9.204776808551115e-05
0.0006379118190216403,-2.5692774616198818e-05,3.2472852573417535e-05
0.0007251622338449894,-1.6261518515203253e-05,-1.9873220131356487e-05
0.0008599773358919923,-2.6191460715525853e-05,-0.00010245525223498603
0.0009520966957896061,-1.2527163279848213e-05,-0.00015686836303245938
0.0011390267763847423,5.359427945025564e-05,-0.00012259255490764664
0.0012152780217911318,7.409112041212178e-05,-0.00012342849459095535
0.0012585663265599983,0.00010115668556381121,-0.0001092606856270501
0.0012302912458246186,8.489893965681153e-05,-0.0001090466120721481
0.0011957776756787507,8.304992319686327e-05,-8.431181661234721e-05
0.0012042962239161435,9.493969124184738e-05,-5.532380075403439e-05
0.0010814236186861507,4.3368845556423045e-05,-7.315349579014053e-05
0.0008105679312264717,-1.253435755508171e-05,-0.00016566029372684234
0.000682286985754054,-1.3205267584486962e-05,-0.00013988653964756127
0.000543998978960787,8.566890256985231e-06,-0.00010975480950335678
0.00045183855905410746,1.2768610174754858e-05,-0.00010959004305439229
0.0002627868691568496,4.865576047187145e-05,-9.055644747831333e-05
0.00018263457189627463,9.122367263574973e-05,-6.45072053006479e-05
0.00019115276919343493,0.00017144949187923453,2.343508823169438e-05
5.772388114604476e-05,0.00019188912957946504,2.858969867202244e-05
1.178860951713069e-05,0.00017732449492455086,6.529664540081906e-05
-0.00013332571161343615,0.0001878190999925858,0.00012360273642619287
-0.0001493226211774574,0.00017959692079975463,0.00015650549080963472
-0.0003096252855268589,0.00016569959903474637,0.00015495608959257366
-0.00035354931856472125,0.00012805485221432299,0.0002016530770404806
-0.0003544294767201279,0.00011376000287878241,0.0002561562040117835
-0.0004282804662639202,0.00011084877800684392,0.00027742932481369633
-0.00035566741846263715,9.594838126511214e-05,0.0002860359590541113
-0.0003943162930833049,9.391538437777311e-05,0.00030824416016108567
-0.0004358156799119522,5.9760826111232865e-05,0.0002722076847852273
-0.0005207295345281673,1.9673535126921497e-05,0.00020130547072011573
-0.0005700984055945,6.580208709985384e-05,0.00018368914735750563
-0.000592578234457303,4.16322177136455e-05,6.407625066992654e-05
-0.0007155643688585742,8.688052379023e-06,-4.858258942919395e-05
-0.00045339778659955646,7.066094264173299e-05,-6.116607861962633e-05
-0.00025461329518855,0.00014402456390798512,-6.455581052612072e-05
-0.00027139543356901306,0.00014525899624911228,-0.00013530606746215988
-4.894862011316829e-05,0.00018218677213251863,-0.0001372630857849627
6.230610803260784e-05,0.00023142579530629874,-0.00012272450844253466
-9.258453120239967e-05,0.00022419940908060548,-0.00011976766133851013
-9.065365792831768e-05,0.0002162135004126068,-9.84008394898576e-05
-3.001048028593202e-05,0.00019156608907724615,-6.967111565760345e-05
8.051815247490381e-05,0.0001703316594380661,-7.377781850111485e-05
0.00010266528997674553,0.00012210562530657346,-7.732056035737859e-05
0.00020843569931556035,8.838149525899411e-05,-8.253254952898783e-05
0.00042760297610445276,6.630068546577004e-05,-0.0001115860157448668
0.0004780418640031806,4.627524499851969e-05,-0.0001235530783809643
0.000521598462595198,1.4759406495155187e-05,-0.00014911784753918292
0.0004970875670168044,7.566710535531201e-06,-0.00014027660973886245
0.0004886241163996535,2.41303886086588e-05,-8.987211398478597e-05
0.00040437424074160773,2.3750495784095308e-05,-5.017813929010149e-05
0.0003563596481128039,-3.101960899037028e-06,-2.9757803304531977e-05
0.0002621427183213365,-1.7462348326495865e-05,6.703485247511275e-06
6.119081990741784e-05,-3.7762048601788063e-06,9.05850491096018e-05
-0.0001326669967578105,7.348513433134613e-06,0.00014650843128587773
-0.00023648986316009553,-1.87117833632613e-05,0.00013153784649297263
-0.0003535907295149606,-6.917576349001295e-05,0.00015653268867905259
-0.0005812769054814779,1.2749308461035182e-05,0.00024727601184379135
-0.0005466180460700107,7.982399265675368e-06,0.00025059801228168006
-0.000558283475559003,-5.424343118337358e-05,0.00019504083625902397
-0.00036150548504544107,-1.3560331386906837e-06,0.0002445630682162998
-0.0003344200917701541,2.4798140175031747e-05,0.0002791734978719397
-0.00043917891582761077,8.32768938060095e-05,0.000287800486648654
-0.00026941051549726904,7.352461510795437e-05,0.0003165272274884626
-0.00030073403874107755,0.00015146835762031688,0.0003897075702077887
-0.00013793303072708176,0.00025750776266180597,0.00048340124808084184
-0.00022348857959812493,0.00027952996543434763,0.0004810815330067425
-0.00014919716003639692,0.00031228400888610157,0.0005304316287692334
-1.8854616046292967e-05,0.0003451299109490814,0.0005861570806431774
-0.00016565116927986037,0.0003298272489403863,0.0005560155241715263
-9.313515645987734e-05,0.0003145795090822873,0.0005315930655373286
-0.00018540699989738263,0.00029174312492366556,0.0005227274373903902
-0.0001466102039598437,0.00023186955925597093,0.0005121323756740253
-0.00011789188568561107,0.00022406894704194019,0.00047014448001467127
6.910013586006134e-06,0.00020022510115039625,0.00042374000126688756
0.00011117366094645917,0.0001830440314365889,0.00039546562241291397
8.264713152096336e-05,0.00011686933352269847,0.0003438298527807426
9.395583024260884e-05,7.373360002807557e-05,0.00026032098746704073
6.177987312268933e-05,5.8527358855509284e-05,0.00022693726946647534
-2.476760837293608e-05,1.3659208801838144e-05,0.00018687094716269323
-9.28454552806715e-05,-2.0079660735499234e-05,0.0001498930745585326
-9.178666853006343e-06,-5.742716116125095e-05,8.131776984275396e-05
-0.0001075368671022821,-7.723071965225327e-05,-9.753506988397663e-06
-6.931175283804347e-05,-0.00010549658820535746,-6.23068099130725e-05
-0.00011196994438163149,-0.00012919742594328295,-0.00016124090311749528
-4.773068196390212e-05,-0.00012491305959750408,-0.00020727513989757536
-7.403909351961902e-05,-0.00014307974501171164,-0.00028454200639658296
-9.399390726017033e-05,-0.00015388686237593674,-0.0003169625688725588
-0.00021597214125393483,-0.00015520938072008625,-0.00031203870164958056
-0.0005715290135377388,-0.00020229319206190998,-0.00034212200203795774
-0.0004962193408302384,-0.00015084903580882993,-0.000245748368921135
-0.0007478650852381484,-0.00020595183193766777,-0.00020591507094574218
-0.0010028752938530006,-0.00024847806994636776,-0.00018631207481022635
-0.0009946961048400425,-0.0002048875178842835,-7.852849670955259e-05
-0.0009175831256427969,-0.00018888385272149578,-3.2715527758666705e-05
-0.0008329191404861233,-0.00019403354999668858,-1.1424509003963535e-05
-0.000749989326591542,-0.00020730400473380277,1.0858442375321865e-05
-0.0006022575175823263,-0.00017280666557391563,1.8570354441158966e-05
-0.0006296868323060092,-0.00017581483768997825,4.3971585441696874e-05
-0.0006209484200003517,-0.0001245702787050985,7.859096407467326e-05
-0.0005658288664737727,-0.00012979683189587895,0.00012953503046749695
-0.0006150068260424201,-0.00015010477926710164,0.00015594451281483255
-0.0005961079915240292,-0.00011099933137592824,0.00018215308186927324
-0.0005735216522945943,-7.037343483921456e-05,0.00021846539628280704
-0.0005791112531787862,-5.2205521133723176e-05,0.00021671753835165354
-0.0006183890127334486,-4.874639079181356e-05,0.0002665570202977853
-0.0008315785487185965,-5.144696377588001e-06,0.0003026477159428339
-0.0009440096285928127,4.239437220910541e-05,0.00032651937384896697
-0.0009685707086272539,3.650594569872569e-05,0.00039770865704107116
-0.0008576588491091767,3.3379769923657605e-05,0.0004185880228787726
-0.0007045494071292772,1.757570202907017e-05,0.0004375798565643799
-0.0005201108268618516,-2.386656927323488e-05,0.00039555616499850393
-0.0003035808660752056,-6.267871884664443e-05,0.0003260012105643921
-0.00010450105844221718,-0.00010768399880433647,0.00024125177145690923
-1.3456628541192371e-05,-0.00013033640253556745,0.00011579221015036337
-0.0002073416430758385,-0.00019113645047121944,2.734701923778865e-06
-0.00018997501370312424,-0.0002197274651688778,-0.00011660867264936556
-0.0001258945517494684,-0.0002434448848339577,-0.00021838836489757388
-9.348170996519298e-06,-0.0002931046853707801,-0.00030702587107158714
1.0070230567375817e-05,-0.00024281635084019538,-0.0003180352177562257
5.727450215171392e-05,-0.0002742148875640778,-0.0003749875567548896
0.0003407163108540385,-0.00025976018494282537,-0.0004315647406235385
0.00042239344351541116,-0.00017076629894169758,-0.0003737913769019108
0.00039066897103121653,-9.031070156720786e-05,-0.0003095184242199947
0.000443231047462641,4.594246590697145e-06,-0.00020749939071921505
0.0004962697007568729,7.746830620366294e-06,-0.00016484453310830485
0.0005203505190546553,0.00011238256238497806,-2.4304191769311876e-05
0.0004177784037147716,0.0001709054467518191,9.453400430973668e-05
0.00038181632767287456,0.00013093177267502095,0.0001195913138618786
0.0002665261375554573,0.00012325820083356688,0.00015519402708327436
7.702261208224225e-05,0.00012841158298166984,0.00016843044061596956
-0.00010349263162389136,0.0001314324766813899,0.00016268800525165382
-0.0002492753184669437,0.00014152876456219316,0.00016442866890757385
-0.00029078979572558136,0.0001641655514526146,0.0001866309040296572
-0.0004041287580344999,0.00018897781697411572,0.00020724373074442823
-0.00034793673109484083,0.00021841512409146596,0.00022103059406401425
-0.0002717879602428819,0.00023222190326994293,0.00024319141823585832
-9.10854899110318e-05,0.0002494540347908495,0.0002954446672440028
0.00012260483781671965,0.0001942883326213652,0.0002667668825698993
0.0002483053196064117,0.00015209908499076664,0.0002457331030205578
0.0003870586731759926,0.00012162281925205359,0.0002393268641677182
0.00045293928315824373,7.330396142393145e-05,0.00021048185646208256
0.0004963588395815335,3.727968122279392e-05,0.00020133424782010844
0.0004513519803923254,1.6518494514684715e-05,0.00014937771879675775
0.0004283485486727583,2.044051505034068e-05,0.00015562726282597656
0.00042851699999463293,3.950113302525065e-05,0.00016160886397321812
0.0003427171967077657,6.929745202286987e-05,0.000154976093186758
9.951033710074343e-05,2.13603294538837e-05,8.270503666306367e-05
-0.00015151266382676696,-7.148731920253393e-05,-4.411055778123158e-05
-5.746944946160046e-05,-6.264002768297037e-05,-2.7873605084174306e-05
-0.00021128077194852674,-9.469140101288087e-05,-0.00010193305313821002
-0.0005433402641051614,-0.00025295703266274214,-0.0002424902396102376
-0.00043748791021786063,-0.0002576515604311825,-0.00027671902174109366
-0.0002950858308352619,-0.00023065039281542095,-0.0002794467048592846
-0.00036014313498350966,-0.00027466663540568284,-0.00030364754472405556
-0.00026769547047925064,-0.0003110322927373553,-0.0003273168855744818
-0.00017442011338761353,-0.00035594238015208493,-0.00035744931759915094
-5.7804948344420426e-05,-0.0003155172214395619,-0.0003284142757468815
0.00011468709929285235,-0.00029273163588121787,-0.0002920279129386774
0.0002851398331176628,-0.0002938754379024029,-0.00029401283101042146
0.00047920400265174043,-0.00025472866679628357,-0.0003022725608109363
0.0006681793630432885,-0.00021401029750317272,-0.0002869545451673118
0.0006954790053440643,-0.00015503610396931105,-0.0002664659513023175
0.0007096145278047123,-0.00014437901356429244,-0.0002929064918625679
0.000623097753580828,-0.00014773751178822646,-0.00030378230578080226
0.0005364816632655454,-0.00013492933309968737,-0.0002838173147735133
0.00043064246963836917,-0.0001367221991196383,-0.00024876733245004785
0.0002506848699943599,-0.00010926147524280816,-0.0002458966411782385
0.00016248217879268233,-9.788232526599174e-05,-0.0002095771324885299
0.00010546421396774803,-8.433375037828004e-05,-0.00018492550986849872
8.681138856634274e-05,-7.377764303052804e-05,-0.00017547767184129
6.645001054357055e-05,-0.00011242274504393355,-0.0001568171257557147
0.00013619447271349703,-5.46566633318914e-05,-0.00011105363938041181
0.00019170392086079044,1.548111512672067e-05,-2.69025534048279e-05
0.0003092501303968439,7.963799432043844e-05,1.792795830774878e-05
0.0003898568952855892,0.0001288170067088416,6.384971873630603e-05
0.0004838865984513402,0.00021813910958226246,0.00014303412277868433
0.00048822965955497744,0.0003406648103723549,0.00020731462067606618
0.00045831305578543065,0.0003768100772258847,0.00019069865250549692
0.0003993994871821171,0.00033659837792215117,0.00015799786423752955
0.0002062135456316977,0.0003029555782788277,0.000122262671068544
0.00010428049249254638,0.00031355502674856753,0.00010106201942978534
5.896164741890846e-05,0.00024777461020876625,5.5897237127555076e-05
-7.9291440818888e-06,0.00017642257847285688,1.599234734758998e-06
-6.401185313305738e-05,0.00011183255127267165,-3.137072470835201e-05
-0.00012385243041702999,7.082167327849629e-05,-6.008904298258464e-05
-2.8174009940936978e-05,2.3128541920395212e-05,-8.024740206918531e-05
2.549773957007758e-05,-6.509274911359604e-05,-0.00011153705957916166
-7.589258446729422e-05,-0.00012132329174634241,-0.0001246422214564922
-5.908605574209583e-06,-0.00016606080429076145,-0.00013388177644498565
-6.892273556743928e-05,-0.00021690353668608618,-0.00017479544398915666
-7.042686549264665e-05,-0.0002355238123783539,-0.00022229222427455926
-0.00011662727248356186,-0.00029034892703211997,-0.0002910166785984929
-0.00012378083860492735,-0.0002962576203406816,-0.00036499646321508226
-5.3978997702778396e-05,-0.00031741396577299023,-0.0004666670130444456
-0.00013671860198108025,-0.0003292024875548275,-0.0005627519978027595
-7.887206721677497e-05,-0.00034822660774369216,-0.0006240742448361288
-1.728907157666194e-05,-0.0003580356510269159,-0.0006500622479390161
0.00014313607092323712,-0.00033552765920929144,-0.0006498025521520281
0.00015560024042714552,-0.0003192463125704907,-0.0006261828693477717
0.0002919782548925076,-0.000302121393297622,-0.0005764713051233854
0.00044109908542413594,-0.0003001292809497031,-0.0005125707000505671
0.0005134598071823688,-0.0002816455210162851,-0.00043584322872066106
0.0006218205065294733,-0.0003110979185655083,-0.0003966990019333441
0.0004440003084970997,-0.00031083910012863047,-0.0003389998620760321
0.00048549688780294707,-0.00030194978351365633,-0.000266181865166829
0.00020057428670133595,-0.0003363011315274795,-0.00024484101289725177
-9.756437339667106e-05,-0.0003966548711965395,-0.00027371251659184055
-3.883925970847528e-05,-0.0002743101678423336,-0.00016610809349059834
-0.0001711504030490491,-0.00024144856120325082,-0.00014323942282683667
-0.0002296172247102449,-0.0002549008907254205,-0.00014208149546106482
-0.00014440138600575102,-0.00014241322173568123,-4.004912623145646e-05
-7.532055184999639e-06,-3.6657464156978787e-06,2.248561937710717e-05
2.9527060088123466e-05,5.3574100386425774e-05,9.308409465371948e-05
0.00014593131003944688,3.364832695174739e-05,0.0001226857295454498
0.00023117417114465442,5.836776877567769e-05,0.000174306584216335
0.00019051651451361995,6.325996364056987e-05,0.00021677544349375384
0.00017169874719454595,7.793251242398652e-05,0.00024000295056531506
8.653063636353209e-05,5.3347919393037616e-05,0.00027225558812929413
1.3632274137359229e-05,5.553638281177234e-05,0.0002942472590997401
-0.00025969227800363287,0.00011023419388896413,0.00033281436464156755
-0.000560612315079143,0.00017143712123486815,0.00041436217581932404
-0.0008362497389592334,0.0002525827548828373,0.00045690104767732943
-0.0012178274272609427,0.0002763009641646165,0.0005340505246615615
-0.0013782469547152418,0.00028771468175572984,0.0005633503509355998
-0.0015865038499716028,0.0003237420326846063,0.0005607523402403161
-0.0016362210292387655,0.0003205841845505108,0.000531210189721261
-0.0017354836025213615,0.0003229651386993883,0.0004283701314984588
-0.0016923928771155356,0.0002611421876605914,0.00029192596479412464
-0.00128388964882331,0.00019710234704141681,0.00012097752786149132
-0.0011237603489580947,0.00014340085534406464,-2.4365255373503202e-05
-0.000813248061940828,7.59005683573445e-05,-0.00016589366899546403
-0.00042155487178083067,-1.1600681010949544e-05,-0.0003303763827025825
0.00014310975040392947,-0.00011686512223991045,-0.00047098866679391044
0.0005318520594447934,-0.0001154114399756897,-0.000516906917819203
0.0007427320576235207,-0.00019338983783764245,-0.0006034642256422752
0.001063356161628048,-0.0002165661953677524,-0.0006676261057335977
0.0012628588522673554,-0.00017397722678805152,-0.0006526307796529011
0.0014069349166579656,-8.132812258007846e-05,-0.0005408066509467468
0.0014086466277423648,-5.247346401664169e-06,-0.00045334900590349685
0.001435149109257858,-2.6314553009312106e-05,-0.0004003722935645078
0.0013617689060644513,8.591982485291456e-05,-0.00028770801389131547
0.0012410417740733207,0.00015794750431089507,-0.00019821421349957685
0.0011193921956254925,0.00015083403311225038,-0.00017106968679090576
0.00106748813217017,0.0001401679937308366,-0.00015857867035592928
0.0009696928400874451,0.00015093527937633851,-0.00012050358304995578
0.0008541822594909438,0.00017160495841157152,-0.00011424070329002571
0.0008600538408673476,0.00016267703836915804,-6.747159762013826e-05
0.000916639271831927,0.00016225687515128694,5.240590801956412e-06
0.0010599267734734174,0.00018503289758712332,5.507182565215772e-05
0.0011992074147736138,0.00022147172596241458,0.00011134790278263798
0.0013113965213439867,0.00024294812890543788,0.00017870649764137558
0.0014564371450201158,0.00026092644713982113,0.000234940988351971
0.0014836860764549657,0.0002629116284174454,0.00023902786307188488
0.0014887431255031745,0.00025330437577910937,0.0002443868962093138
0.0013021936396130668,0.0002277304821739088,0.00024908054662576136
0.0010321668730311085,0.00016330381766175873,0.00022825469917772667
0.0007924480086003406,0.00014643561118343255,0.00019150827166949794
0.0005525943831137673,0.0001380208535261065,0.00018262123616650462
0.00041820339236154334,0.00012485278560812955,0.00016571679510707203
0.000174840013401487,0.00011305268279768394,0.00016376258430706917
5.067910650235064e-05,0.00012960820151017443,0.00015399012654518417
2.555002966846056e-05,0.00010832393835517903,0.0001188497771057743
8.396456123221468e-05,7.7104468896376e-05,8.25486927796752e-05
0.00012407106619401103,4.8467831965690305e-05,3.6299329624937425e-05
-0.00011171007312405667,-1.1349407791420133e-06,-1.0723330378342841e-05
-0.00029530744960468846,-0.00010358106856808735,-0.00013430413303954416
-0.00015119909871176242,-0.00010471802725332996,-0.00014344349458370517
-0.0003188253597368615,-0.00014145980480230366,-0.0002069184091302285
-0.000637666511784178,-0.00022730909066475386,-0.0003021651730932529
-0.0005701319203890412,-0.00021597205351864143,-0.0003104843872673842
-0.0003034450521977619,-0.00018762397721117116,-0.0003511620474916617
-0.0003135786274803686,-0.00019539019728055055,-0.0003986330336685758
-0.00023533263767478831,-0.00017542064405024117,-0.00042453242435950417
-0.00010833999387245559,-0.00015533282395410487,-0.0004506813335688003
-4.25116739885875e-05,-0.0001480045773210348,-0.000472972356575312
7.952095574589527e-05,-0.00010952625966269439,-0.0004655859415942614
9.615061058740817e-06,-0.00013219682455353722,-0.0004474372418681376
0.00010362440968913385,-0.00014726830466935681,-0.00043057877398196466
9.408567813610286e-05,-0.00012429373778507586,-0.0003804120402498847
6.547457210896673e-05,-0.00010403202679393435,-0.00030740874688765487
-1.1245704944764372e-05,-0.0001196830847378111,-0.0002622750227973981
-0.00010708608434796321,-7.382624825600086e-05,-0.00014084197448703946
-0.00023270971022300893,-3.3729130945184134e-05,-7.526071654085407e-05
-0.0004672809830180954,7.701383856984484e-06,2.012607258428464e-05
-0.0007305056501406675,4.1658625967305266e-05,0.00010119748236793797
-0.0010326425725438056,8.139910024606855e-05,0.00015519086862212468
-0.0012413955218482221,0.00012336804513193527,0.00020315825978638497
-0.0013417547834208706,8.660064894411858e-05,0.00019325104096775328
-0.001502311002104606,0.00011058785392951337,0.00023885379670629284
-0.0015371504202764342,0.0001404388318709072,0.0002565231120468093
-0.001441169313832539,0.00011420271400775762,0.00025902864998569587
-0.0012924908434905945,7.494241373130105e-05,0.00029645712987452983
-0.0011961449346540088,6.847862067753475e-05,0.00035373777348078026
-0.0011533625102606443,6.985948283836904e-05,0.00040652129321104444
-0.0010733569060247152,5.237344604571997e-06,0.0003910999256628792
-0.0009390203110122683,-3.6284414663651276e-05,0.0004288516215254601
-0.0008795389210791514,-6.840764301060335e-05,0.0004262944953695966
-0.0008065066751463422,-7.127859748735166e-05,0.0004072814297994624
-0.0007004425288161201,-3.994112436860187e-05,0.0004499076857809668
-0.0005957084460455137,4.018880045427972e-06,0.0004549840365438366
-0.0003306839818345787,6.661047797351233e-05,0.0005238011390947542
-0.00026345172546701176,0.00010005490863803672,0.0005208921953357378
-8.176942994812433e-05,0.00013425886174674916,0.0005349719182966207
-6.317626438998104e-06,0.00014478742028390968,0.0005295988475489571
0.00010758389309623877,0.00010591341749149203,0.00042892900385092564
0.00010431295446544922,9.71331555600695e-05,0.0003814836363128546
7.624212095940756e-05,4.6967211442806284e-05,0.0003129558840009104
0.00011274973362400151,3.875231426050203e-05,0.0002429885747693323
6.740333974071343e-05,4.4234351956423794e-05,0.00021920201987471737
0.00010679919069061607,3.91886207300018e-05,0.00017202336692828096
0.00011279500491773781,3.649857595384667e-05,0.0001264144697361462
0.00016849518909307104,2.0776364872451692e-05,5.608779768500808e-05
0.00022514273648159748,4.2972809481172184e-05,1.2595070219040706e-05
0.0002666452817713945,4.213555377128628e-05,-7.036352081883279e-08
0.0003755888928792341,1.811079817914914e-05,-6.483094768427273e-05
0.0003923759444229499,-3.998437775717887e-06,-0.00010122801417003365
0.00046939101129066767,8.764732749661534e-08,-8.170047018823483e-05
0.000457110383537683,-2.903442770709823e-05,-7.438354137789287e-05
0.0003163940456622908,-4.4382448742940474e-05,-0.00010799607242405958
0.0002841596569903931,-4.8448179311738297e-05,-0.0001269487762704671
2.2415606796520672e-05,-2.8143127199550275e-05,-0.00011320314843241615
3.285063975658702e-05,-3.771730370569279e-07,-8.168836274880735e-05
-0.00019109977721552856,5.815869611932179e-06,-8.169643437509233e-05
-0.00042763192867503226,6.239980907652365e-06,-8.421636086350455e-05
-0.0007075559122794715,-2.5090297935863916e-05,-8.463047036307386e-05
-0.0006048800940938733,3.803701028841197e-05,1.5799154731334756e-05
-0.0006496598949395832,2.9255256861707974e-06,4.157308428120266e-05
-0.0009770415289902252,-2.359739809903254e-05,-8.512055848271576e-07
-0.000749482919805221,6.398684864126825e-05,6.275320591495786e-05
-0.0005681556003525188,0.00011901445582038668,0.00010325469413224936
-0.0004735535136348853,0.00012287664104219384,9.22265721447103e-05
-0.00036092081858448566,0.0001472280342760492,9.24313457820435e-05
-0.00012668715031267187,0.00020178406548996503,9.44950499411237e-05
4.326795023350855e-05,0.00018162649601912242,0.00010619066029103807
0.0001721863786760838,0.00017826957702576324,0.00015467814491162168
0.0002261251937199067,0.00015881476541205748,0.0001447381131789135
0.0002774793338000985,0.00012156991500944065,0.00015620543689404568
0.00025213723623200346,9.572623608392517e-05,0.00016730023752949342
0.0002188842434750422,7.609121665103221e-05,0.00018280144398663314
8.632428349468275e-05,2.6952650124640875e-05,0.00018814187729080702
3.41582431403917e-05,-2.24807062129132e-05,0.00019781273784931288
-6.0089744863049306e-05,-6.842676925467752e-05,0.0002442868782365095
-0.000133247978346797,-0.00010110228982403423,0.00023975237922436773
-0.00011788697252141709,-0.0001261012555594914,0.0002330111679004686
2.0519476608263644e-06,-0.00017198607952741886,0.00025305740157577876
0.0002121049551335816,-0.00019657400649010428,0.00021873088258409924
0.0001753002715430202,-0.00021479859704735346,0.00017219181825015563
0.0003726016894437007,-0.0002552142803717209,9.957771762911679e-05
0.0006179670070781812,-0.0002648514506669813,4.0128087787496835e-05
0.0008038556724722106,-0.00028171702509215303,-3.645005846460856e-05
0.0007092362142126061,-0.00033253685863614133,-0.00018206008270205693
0.0006804217383081249,-0.00028200953379415883,-0.00018861389193059407
0.0007803160040456329,-0.0002938370976789612,-0.00024694402236423603
0.0006586478257654911,-0.00027711163614931456,-0.00026003812962377735
0.0005618437644278248,-0.00022792744739177852,-0.0002265944008387764
0.00045860696824836573,-0.00014446499392686208,-0.00014945369736129392
0.0005053673004115036,-2.143771178029051e-05,-2.4923425845505412e-05
0.0005135024464229507,4.017739489437562e-06,-2.4717248447242885e-05
0.0005682540390938069,6.975332341196954e-05,6.772462554271194e-05
0.0006178189102916645,0.0001237939988641105,8.69108801283279e-05
0.0006121484176796838,0.00015687301299077312,9.989935437134763e-05
0.0005876268184237334,0.0001347203481795662,9.448610096472854e-05
0.0005725656910452383,0.00012447701633294325,9.087615404973697e-05
0.00040701857554944213,0.0001680581807421653,0.0001268954333532697
0.00032207962870520326,0.00019513708162362473,8.501510087936191e-05
0.0002501684614109467,0.00021858603199496695,0.00011356584518371266
0.00011085360343668578,0.0002311988246971525,9.861175458172728e-05
1.0750352778115165e-05,0.0002551054888940495,7.486555781571339e-05
-8.975016224699013e-05,0.00024905782324407047,3.670940331136425e-05
-2.592395650625048e-06,0.0002078065511766268,1.0855283913230858e-05
-2.0294348435572478e-05,0.00019293133439632966,1.8279951381488464e-05
-1.8014991490074135e-05,0.00016066983559030753,-2.3169075522406934e-06
1.6646850912897275e-05,0.0001492741914216301,9.625940205943176e-06
4.843291341116111e-05,0.00011978827907880703,-7.566271860005461e-06
9.980582879425344e-05,0.00010640526025675921,9.865105988869e-06
3.713965606162093e-05,0.00012455545147910577,7.794733965374443e-06
9.26043593269385e-05,0.0001394937497687535,-2.807171085050408e-06
0.00010440630457383917,0.0001615900009350242,2.7785694556445237e-06
8.033197867082563e-05,0.00015760735547070263,-7.12005132776563e-06
-1.4728436018475077e-05,0.00014053814796230555,-4.89456371216641e-06
-0.00011721983510021541,9.968124500330314e-05,-2.083532283524902e-05
-0.00016073590009304495,4.412994723024466e-05,-1.6571398759180245e-05
-0.000449043495406602,-7.216638859257628e-05,-6.796923089970959e-05
-0.0006688986150932277,-0.00021200239284479883,-0.00017214777524864443
-0.0005616963695217728,-0.00022721846034481175,-0.00015731089869178903
-0.0006860306409060365,-0.0002920094885750679,-0.00023349739562013582
-0.0009587171836669932,-0.0003481343104569405,-0.00035792782463464813
-0.0007705145937131685,-0.00027168338004705724,-0.00039107500890450084
-0.0005431447903844557,-0.000182125796264562,-0.0004077041373342533
-0.0005163945450498737,-0.0001865114088734877,-0.00044776466912373127
-0.0003902618803381765,-0.0001691536407428165,-0.0004828369361533618
-0.00022509781612903485,-0.00013969238195249152,-0.0004909966479820136
1.608025787437775e-05,-0.00017149371035133254,-0.0004832812265138532
0.0002222083495543249,-0.00017867728186491584,-0.0004392024288250598
0.000351619322642632,-0.00021730966229372263,-0.0004169858051534508
0.00034664983318568514,-0.00020003085572003308,-0.00038009356197068615
0.0003541287209231329,-0.0001688085787384301,-0.00034485758131278806
0.0004895186631055272,-0.00013373139854554682,-0.0002930496754858319
0.0005440849593224154,-9.66328902292263e-05,-0.0002694996543219297
0.00043752230236251196,-6.080829503158249e-05,-0.00025043815899596826
0.00030223887054674957,-1.477800632935149e-05,-0.00019212803215651065
0.00029362153262877777,4.627971948718792e-05,-0.00014012816201117213
0.0002099477253964659,4.607389302915773e-05,-5.085545397898217e-05
-4.0568693276019324e-05,7.24509134035905e-05,2.5344729619366924e-05
-9.07312157253113e-05,0.00010693991773225372,0.00011032578929525113
-0.00010796466327091243,9.472939029514896e-05,0.00018872356076025823
-0.00018783726115031507,4.61477659522999e-05,0.00021656347558024586
-0.00015357145482259451,7.95295537820581e-05,0.0003070678084317043
6.208133079920772e-06,8.261721386403894e-05,0.00036625054821016144
0.0001858051416140275,6.13130348510939e-05,0.0004313024127843373
7.141862264852466e-05,7.219902603606594e-05,0.0005058801995925933
1.0227276330287669e-05,7.843005796826443e-05,0.0005645691664349762
5.770686054336461e-05,0.00012562520510562056,0.0006650745946233341
0.00012672066510627171,8.259975458677436e-05,0.0006621861808683799
5.140713205715684e-05,7.987514219632236e-05,0.0006326633320639858
-3.0596199569466994e-05,6.779920034631876e-05,0.0006128413492103152
1.5576307669683118e-05,1.2523127467647018e-05,0.0005722859916631246
-1.2820900272196536e-05,-3.46226248303608e-05,0.000493766619400554
-0.000237594798547961,-6.028758743102922e-05,0.0004133405887418151
-0.0005887894834831124,-6.46803943161297e-05,0.00036281554501181335
-0.0007980235718742978,-1.4222029233095401e-05,0.0003091620443938215
-0.0010098291749708723,2.5514058291351773e-05,0.000275235246350303
-0.0011674659216876803,5.9429363041555385e-05,0.00017302424853114095
-0.0012065643507723244,0.00012024643157988751,0.00013823238276408872
-0.0010853492363594233,0.00015980625936299657,5.3886174007090175e-05
-0.0008529836230553973,0.00015756533037529204,-3.95407892743283e-05
-0.0006505753225897515,0.00012952836260214128,-7.236475757137533e-05
-0.0002924078057632409,0.00011605436251991903,-0.00010904398002087624
-0.00014452579432517319,0.00015231289533978838,-0.00010899590120528128
5.872265710656945e-05,0.00016469397973922051,-9.145538093756182e-05
0.00014015027124863306,0.00016787498992959133,-6.311063856371067e-05
0.00022015306796082073,0.0001733914197711057,-2.0016754694852825e-05
0.0002083544566465979,0.00019800285973218143,9.333606975465485e-06
0.00011933916329035642,0.00022182328036062855,1.7279947129679957e-05
9.969686184505396e-05,0.00022339268517375654,2.5170663253774925e-05
5.6164478124361164e-06,0.00019289922336365912,5.920011131289796e-06
-4.915181451992663e-05,0.00017852471059067221,2.586675324649742e-05
-9.573351809539337e-05,0.00019432298797095548,4.893581079421745e-05
-0.00014646789768668988,0.00016342743636542283,3.361498762779305e-05
-0.00017685563874591354,0.00013784555887017198,4.253974920905683e-05
-0.00018001655760680659,0.00016128038389598613,7.735039027900959e-05
-0.000237661828136102,0.0001531830516971616,4.048464308519816e-05
-0.00028924179826850835,5.9504376520687965e-05,-3.9207396032902326e-05
-0.0001384822522236301,8.698992942060298e-05,1.8878830923265323e-06
-9.936908364828661e-05,6.494158159934047e-05,-9.126201283095258e-07
-0.0001701186387038611,-1.3807481058941644e-05,-7.711929612236875e-05
9.961737387819444e-05,-1.6172204219955783e-05,-5.991690678779983e-05
0.00021126726074911125,1.874108687501444e-05,-1.7539642916667975e-05
0.0002555539905382701,5.5404078336651985e-05,-1.1648759826544508e-05
0.00036640794491424696,0.00011559884207011039,-4.1273907714782505e-05
0.000473119049599958,0.00016295393022847175,-5.284861914759802e-05
0.0004729123457908763,0.00020756177034904233,-5.1320625284709335e-05
0.000610650253738426,0.0002378974845157632,-4.044990000031449e-05
0.0007104346751766245,0.00023400204770435381,-5.942295838207996e-05
0.0007339696059095951,0.00020576521945806382,-6.840667792425847e-05
0.0006920092590598912,0.0001478262996726548,-4.5143024006884233e-05
0.0006440094059217868,0.0001207085321578758,-4.1127916569659825e-05
0.0007039845687928606,8.917856830992452e-05,-5.192459346126699e-05
0.0005707969521688489,4.178742104010228e-05,-7.503242990607189e-05
0.0005715909544920404,-2.612162360458487e-05,-9.069594622960847e-05
0.0006304150333323436,-7.327737769968487e-05,-0.00013578510090847616
0.0006488923886053449,-0.00012791640628466615,-0.00020294278247149497
0.0007062956858298558,-0.00016927989149869376,-0.00025770034112630085
0.00070623479769531,-0.0002100376538359433,-0.0003491115035917647
0.0007322638608091456,-0.00021364523190460196,-0.0003498963814689155
0.0006255724087764452,-0.0002364881084589338,-0.00037793334924112495
0.00045530286576326743,-0.00023482412524801466,-0.00040535389045805826
0.00039360405983989506,-0.00019007397885429026,-0.0003829812738432931
0.0004129870164375005,-0.00020242181166506146,-0.0003477089708699365
0.000320222979295437,-0.00018801650388503997,-0.00030937313495533667
0.00021919622936041324,-0.00021247712727115114,-0.00032157094080784274
0.000144510528424596,-0.0001727742913353649,-0.0002817044789781411
0.0001926784819443428,-3.528949904662356e-05,-0.00014847281935355958
0.00013258575408884798,7.525738260817623e-06,-6.922735170698997e-05
1.6443656506138943e-05,2.6270948683326667e-05,-3.4218780333763884e-05
-6.2937625022580845e-06,9.671632627393491e-05,7.917650788668013e-05
-5.442118242281703e-05,0.00014436681839051285,0.00015391169139902165
-7.998524970057096e-05,0.00015418059936734375,0.00017527079256162152
-9.079438497089663e-05,0.00012796623980048147,0.00018724206648050706
-4.0011926564005155e-05,0.00010635253148285049,0.00016225494497859716
-2.475602734432776e-05,0.00010596877831573132,0.00017289036482450446
-0.0001041911781982402,9.68748635340108e-05,0.00022096654746737743
-3.625107533969694e-05,0.0001314902940881968,0.00026623801560682635
-2.2481759033610203e-05,0.00018069141571406093,0.00034689215743070195
1.2690701438470191e-05,0.00015575895315686695,0.00034554752985003275
9.690092084743824e-05,0.00020325889190436056,0.0004203032433673778
0.00013945944535845428,0.0002732050569848226,0.0004937882022262545
0.00021663541833258083,0.00026734128402882356,0.0004763043588093515
0.00012814407877333574,0.0002871259794806907,0.0004975115028438205
0.00013077981554594862,0.0003004412668341328,0.0005264338928749215
1.7316620386312118e-05,0.0002930906477605455,0.0005450337262974792
6.1353129774756e-06,0.00028191723650740716,0.0005250446958819221
-3.6360744169361086e-05,0.00026969740915461617,0.0004966520501630627
-4.943116296180795e-05,0.0002662024829061846,0.0004697029971760386
0.00010129258717654831,0.00021571700768996716,0.0003984986235511202
0.00013645873072350539,0.00016391296220650796,0.0003078737427237365
0.00021849347150327636,0.00014275310737093473,0.0002595450585672264
0.0001366731552186397,8.91175924400853e-05,0.0002021833477635416
0.0001685020324280722,3.219718900444637e-05,0.00012340533253373868
0.00023332525942629232,-2.960900463660933e-05,3.1966621258624675e-05
3.860342786293375e-06,-9.383379076857828e-05,-5.6768095365392947e-05
-0.0002519333399447804,-0.0001977203528282091,-0.00020293558819626143
-0.00017673596812009851,-0.00019213820942418961,-0.00023658707361009983
-0.00023887029089815387,-0.00022284328820662138,-0.00030853772168284717
-0.0005314009257493008,-0.0002906045870059655,-0.00039222310994282603
-0.0005177944457194888,-0.0002511910135738593,-0.00037602476067414946
-0.00041001121855998863,-0.00021618647801377574,-0.0003689750728662613
-0.0004064388222517395,-0.00022697964550211827,-0.0003359717741001373
-0.00035460249026408164,-0.00018479732894181424,-0.0003095617653410412
-0.00035738439365240395,-0.00013908534304913627,-0.00027575902467765384
-0.0005028131572490269,-0.00012207237371697122,-0.000265646330340283
-0.0005298111664017561,-4.424838956665845e-05,-0.0001779633816546964
-0.0005657986856119094,6.209185900617775e-06,-9.455506072461803e-05
-0.0005931827290427973,4.702590620066468e-05,-5.622150592199906e-05
-0.0005192334762292449,5.870581197447612e-05,1.8949896324548824e-05
-0.00040030491303519317,6.35649307203529e-05,7.745005731064027e-05
-0.00027602012422651246,4.957250414767559e-05,0.00013106565638165747
-0.0002352992983517753,3.427291286766064e-05,0.00014648526922866106
-0.0002677437247635499,1.510174871297633e-05,0.00015089588633219978
-0.0002334637053568904,3.2238249015394647e-06,0.00017164645709710427
-0.00035771287372869464,-9.956789130449402e-06,0.00014875462437706727
-0.00036510349999253325,-3.9346982519490875e-05,0.00014307009415485183
-0.0002732503282776176,-5.112690626516533e-05,0.00010303465459339769
-0.0002509980841691321,-5.802288224187809e-05,6.402010022992917e-05
-0.0001269882570498992,-5.568544468463391e-05,4.883702111269696e-05
-9.777985071156108e-05,-6.14972784834236e-05,1.986005987123201e-05
-2.4642673643636044e-05,-0.00010605896996108897,-3.054759434493547e-06
-0.00010698536449469424,-0.00012389340269080228,-4.376260052063438e-05
-0.00011627527940888087,-5.072665890618516e-05,6.16126500920985e-05
-5.0716481639447475e-05,-9.990382885907455e-05,7.553655557947075e-05
-7.531090099784302e-05,-0.00018349191893469698,5.850331944818246e-05
-3.274079545727735e-05,-0.0001738164961531708,9.805972556426156e-05
6.335015528592752e-05,-0.00014469450885198676,0.00013331255135331165
0.0002314933513043176,-0.00012133118790204056,0.00020392190577712635
0.0003467219514076656,-0.0001984980364282438,0.00012730375233759356
0.00035401361252033824,-0.00017676246410811038,0.00012181434489585149
0.0004691464059346112,-0.00010651712246216947,0.0001380953405944199
0.0006328763527981907,-0.0001383163452186752,9.545399418292523e-05
0.0006759618141005312,-0.00016184908257684094,6.726384099035958e-05
0.0005899045961377155,-0.0001691876819472355,-2.0011315120780997e-05
0.0005514383859188026,-0.00015852716987424566,-4.222249921925952e-05
0.0005674961836164284,-0.00014976892944404936,-3.9080180191621476e-05
0.0004067306290723393,-0.0001830039365119855,-8.05427182921085e-05
7.666342473326907e-05,-0.00014326100565253716,-0.00011636459370318705
-9.01258437887656e-05,-0.00011245704945329149,-0.00014610081418201854
-0.00021306653142665494,-0.00010698589090551339,-0.00010460335752511973
-0.0004335168457821474,-0.00011195722279797405,-0.00010651299891373356
-0.0006260861853076452,-0.00011793110325916297,-0.00010030012814020564
-0.0006441536423657478,-0.00010339164856662475,-3.757166351303928e-05
-0.000627478891702968,-0.0001264333327743401,-1.1753690961660202e-05
-0.0007473037563031137,-0.0001521625174412909,9.356067152217463e-06
-0.0009645912216259646,-0.00016581769042998655,-1.5518753469697722e-05
-0.0010366608384440622,-0.00014133329084148745,8.537323540293162e-06
-0.0010399735389643823,-0.00013707094599505225,6.745071670219999e-07
-0.0011001908506098862,-0.00016161825162513903,-1.6592806114293924e-05
-0.0010835125905438415,-0.00015455715825922944,9.349048344746895e-07
-0.0010236771018937085,-0.00014379373295722448,1.4478040147173266e-05
-0.0008215105992632015,-0.00013528009788308455,3.994121210389528e-05
-0.0006266476897132665,-0.00016611511229524503,2.2857616045031202e-05
-0.0006974168974227929,-0.00021284798338402604,-2.6029238583481097e-05
-0.0007464467602049238,-0.00023811471653275621,-0.0001323602749759245
-0.0006037128668124153,-0.0001746136569384533,-0.00013106863937410295
-0.0006171087826896487,-0.0002025724527684979,-0.00020096962089706345
-0.0007812368712708143,-0.0003037284364527857,-0.00029225198829067157
-0.000658831367517356,-0.0002663079404530607,-0.00029595475890229264
-0.00048439265429648753,-0.00027482420757941385,-0.0002994738122924032
-0.00047661809939494296,-0.0003153416635768059,-0.0002866737929654425
-0.00037202474366691536,-0.00033585219120867436,-0.0002904832494133409
-0.0002741073243758076,-0.0003203011512366606,-0.0002733257804322759
-0.0001862024059805622,-0.0003090057005094917,-0.00028028404830352253
-5.4619990076200536e-05,-0.0002741373297670841,-0.0002703391034066204
0.00012705054894443307,-0.00023270813099055148,-0.0002748818495146926
0.00025931519270092806,-0.00021762796510421692,-0.00031083374828891076
0.0004442968530113067,-0.0001731417257802686,-0.0003139600995355069
0.0005275753260478911,-0.00013040141421760787,-0.0003185528546299813
0.0006549148742920067,-0.00011160628254493137,-0.00036768799948746014
0.0007345351461283589,-0.0001167100066478058,-0.0003922678548257432
0.0007716307591884686,-8.639447154585606e-05,-0.00039475795139252436
0.0008126602370168404,-8.716908441909318e-05,-0.0004150703732505327
0.0007981837761002419,-0.0001152786090897502,-0.0003744697444124297
0.00079391441244916,-0.0001490352888445845,-0.00034662772395010674
0.0008359953072757304,-0.00012479909174975854,-0.0002889136691315087
0.0008686590713477745,-8.876902103431684e-05,-0.00022481232623261703
0.0007588719753411605,-6.914803920977597e-05,-0.00016648693349352353
0.0006329219750302768,-2.6441154706362995e-05,-0.00011747286302373036
0.0005560242976782758,6.413345393720996e-06,-0.00010075635046953765
0.0004534184920742056,3.2382397723120953e-05,-7.410752686868938e-05
0.00036326650323671906,2.582490362167365e-05,-1.9819175331811838e-05
0.0002820547173516604,1.6305473781421024e-05,1.5157460478389239e-05
0.0004171561866451913,8.829042626540887e-06,3.784188750793863e-05
0.0004515909707056056,5.196644308609076e-05,9.902796972269059e-05
0.00042527238188220975,4.0501049541765754e-05,0.000103046235622006
0.0004976276640663707,8.416389529641734e-05,8.626304442084589e-05
0.000567922926965303,0.00015960139798942868,0.00011362427673569084
0.0005071026999648798,0.00015356662939463526,9.626010394460291e-05
0.00037761908224471445,0.00015535975861858376,9.462454689532667e-05
0.0004803710544644943,0.00018781576605990798,0.0001311753252113216
0.0006471103140001268,0.00023449704893171197,0.0002080896722257704
0.0006818442746250788,0.0002166885857801327,0.00028302506715148344
0.00046103161445758083,0.00015555312669789545,0.00023507030983558716
0.00039903222820685897,0.00018795965156457795,0.0002487978642521435
0.0003674332168637248,0.00018349849906475923,0.0002293845513220879
0.00011848690488389097,0.00010062448466994303,0.0001407045813780796
-4.4389028873002714e-05,5.1476004082694225e-05,6.295043433776652e-05
-0.00016565011645916337,1.870107968570446e-05,-8.242533728189132e-06
-2.800766426139762e-05,3.2116297277598803e-06,-4.4330948261256874e-05
6.760653414747175e-05,-1.8736963326578543e-05,-0.00010265756929163415
0.00012317757230977566,-3.891225528056597e-05,-0.00016832919435282273
0.000305784068985581,-5.037887711523349e-05,-0.0002494142908074197
0.0005069117884662532,-4.756530137070766e-05,-0.0003253086299749343
0.0007413081175465789,-5.1856774256426604e-05,-0.00040855762403012004
0.0009180944455923706,-4.248728364102834e-05,-0.00047977568432409944
0.000989607295697513,-3.6028842425099156e-05,-0.0005185238750371069
0.0010724900836000199,-3.2491101467381505e-05,-0.0005432709534050395
0.0010313360219816393,-2.7359828553915612e-05,-0.000556879012664485
0.0009008885468554783,-3.719247256894046e-05,-0.0005559623567239743
0.0006641161767914105,-2.4089065393712885e-05,-0.0005163427813623099
0.00048807138550078176,-2.449413818065232e-05,-0.0004585018616426633
0.00025126918551602424,-5.478537067033631e-05,-0.0004353361200548167
-7.959324943752129e-05,-9.272473183321819e-05,-0.00040996805290858764
5.6743529545364375e-06,-2.7828070587381675e-05,-0.0002473067191164738
-0.00011988364709235629,-2.8215333156824184e-05,-0.00016775716174023138
-0.00032041353985289,-9.831705250491666e-05,-0.00016409194173535265
-0.000317485645319445,-4.643316811248302e-05,-7.459375458929789e-05
-0.00030032607069698604,-3.9933052742316894e-05,-1.2246586547624363e-05
-0.00039442666379343376,-7.579712871845155e-05,-1.1730528904443555e-05
-0.00040759832884808614,-8.888439264205045e-05,-1.5647373071907915e-05
-0.0005272282461374041,-9.903867339930615e-05,-4.121126487907502e-05
-0.000623429392120151,-6.593983114904601e-05,-3.4131045270032564e-05
-0.000530460230400522,-3.2433898211393623e-06,1.7479807603760464e-05
-0.0005574275322805687,4.899222444009503e-05,3.755587120164295e-05
-0.0006326250795767788,8.781323525460633e-05,4.911286015131365e-05
-0.0006507751830638319,0.00013368261785042852,6.862110242033407e-05
-0.0005768355811071393,0.00015820018129323641,0.00010725243002750258
-0.000474568783787271,0.00015213523183657963,0.00011312418687449318
-0.0004867451822837221,0.00013200117536224472,0.00010174301899157615
-0.00041885386012123846,0.00010990729304324828,0.00010377004989496548
-0.00038079965375955953,7.306374282030862e-05,0.00010722137181458775
-0.00043201043474590045,5.985364980786238e-05,8.726252226183525e-05
-0.0004764979023592501,2.2845069930077986e-05,5.030149478882668e-05
-0.0004648817799761952,-4.5927726413448235e-05,2.884834163831346e-05
-0.00036518702377347657,-0.00011776712642501526,-2.3344194705872053e-05
-0.0003046056116148056,-0.00016909529692519043,-8.734973091474742e-05
-7.51436779663109e-05,-0.00013919834581053694,-8.955556587639463e-05
0.00013170629781484726,-0.0002032686304965138,-0.00011652918468250603
0.00035838720542607117,-0.00018796982883037433,-0.00015809630297787642
0.00033674401812704147,-0.00011647777193517453,-0.00016600719816768384
0.0002785019736973632,-9.220902513121101e-05,-0.00019085043416492377
0.00024051707803580608,-4.659846097226667e-05,-0.0001990777019925357
0.00019413014630152166,-1.2213071754024509e-05,-0.00022072001193957258
0.00016425249690058785,0.00011055837494811472,-0.00015685888764524505
4.608038542392656e-05,0.00015811077926363682,-0.00010716416855389341
0.0002173248404599477,0.0001926341757369514,-0.00012113334533406064
0.00016550412531404069,0.00030692909929616726,-3.399838985467988e-05
0.0002447230969716571,0.0003958556047689217,4.853959924837977e-05
0.00018073493230569423,0.00042637029846542856,9.325079127349118e-05
7.521369054689739e-05,0.0004475547191172652,0.00012825585324439392
8.193717938859301e-05,0.0005006828621763901,0.000205808209638878
-8.118213143401448e-05,0.0004967189920168516,0.0002560035450022465
2.4106085999216923e-06,0.00047509335173038,0.0003212052610641007
-2.3488782090065395e-05,0.00045379259438446483,0.0003880542906744263
-6.987694211657495e-05,0.00041886105439647195,0.0004034970655786466
-7.735302233122274e-05,0.0003393094791141289,0.0004135018457884562
-0.000255415544607672,0.0002754837120498563,0.0003931811768345174
-0.0002255929928269798,0.00026698876454426477,0.0004305882493682377
-0.0003229278512966436,0.0002369975859720524,0.00040396644816716176
-0.0004069338234790976,0.00019966579012146234,0.0003806052328595508
-0.0004731058893407749,0.00017403653569108117,0.00043900081364981765
-0.0004699098764547658,0.00019446810176502669,0.0004649658301679577
-0.0004295566604945778,0.00020673925413079705,0.000489263705011205
