y,u,v
158.138916015625,112.0906982421875,160.97547912597656
158.4949951171875,112.26187896728516,161.14483642578125
158.5319366455078,112.23600769042969,161.12648010253906
158.2615966796875,112.12496948242188,160.97772216796875
158.51889038085938,112.14926147460938,160.9972381591797
158.53231811523438,112.16500091552734,160.99456787109375
158.43894958496094,112.10566711425781,160.91323852539062
158.6841583251953,112.15093994140625,160.938720703125
158.67202758789062,112.13388061523438,160.9268035888672
158.55227661132812,112.09028625488281,160.91307067871094
158.6030731201172,112.08491516113281,160.90769958496094
158.7011260986328,112.09966278076172,160.9240264892578
158.5166015625,112.07499694824219,160.8281707763672
158.60940551757812,112.10005950927734,160.90423583984375
158.59645080566406,112.04789733886719,160.9090576171875
158.69451904296875,112.22905731201172,161.02674865722656
158.6195068359375,112.04676818847656,160.84793090820312
158.6859130859375,112.01484680175781,160.8367156982422
158.7167510986328,112.25698852539062,161.0238494873047
158.6103057861328,111.99618530273438,160.76739501953125
158.64700317382812,111.99726867675781,160.79342651367188
158.5619354248047,112.1162338256836,160.8822784423828
158.82257080078125,112.2391128540039,161.0016632080078
158.8023681640625,112.21826934814453,161.0133514404297
158.50869750976562,112.07962799072266,160.8961639404297
158.75840759277344,112.20520782470703,160.99365234375
158.7332763671875,112.22232818603516,161.0131072998047
158.41897583007812,112.06964874267578,160.8815155029297
158.6582794189453,112.17028045654297,160.9719696044922
158.64068603515625,112.16152954101562,160.98373413085938
158.45419311523438,112.02589416503906,160.85128784179688
158.6964874267578,112.15089416503906,160.9701690673828
158.7736358642578,112.16194152832031,160.96934509277344
158.46588134765625,112.04646301269531,160.87094116210938
158.64039611816406,112.13525390625,160.94847106933594
158.6270294189453,112.12236785888672,160.93304443359375
158.43821716308594,112.0219497680664,160.8431396484375
158.73947143554688,112.13011932373047,160.94393920898438
158.65301513671875,112.13624572753906,160.9503631591797
158.4795379638672,112.0478744506836,160.87416076660156
158.72750854492188,112.1448974609375,160.94940185546875
158.72596740722656,112.1587905883789,160.94851684570312
158.3747100830078,112.01950073242188,160.8174285888672
158.7010498046875,112.13591766357422,160.9352569580078
158.66790771484375,112.106689453125,160.9289093017578
158.44876098632812,112.04315948486328,160.8080291748047
158.6249542236328,112.10002136230469,160.87942504882812
158.6450653076172,112.10795593261719,160.88491821289062
158.54930114746094,111.99061584472656,160.7755889892578
158.7484893798828,112.06625366210938,160.84991455078125
158.70945739746094,112.0427017211914,160.8411102294922
158.69602966308594,111.96286010742188,160.756103515625
158.89918518066406,112.0356216430664,160.82472229003906
158.9384765625,112.03528594970703,160.8014678955078
158.7293243408203,111.94642639160156,160.68544006347656
158.91212463378906,112.05130004882812,160.78298950195312
158.87686157226562,112.043212890625,160.77581787109375
158.70187377929688,111.98948669433594,160.7173309326172
158.57183837890625,111.96576690673828,160.70120239257812
158.54832458496094,111.97322845458984,160.7374725341797
158.76170349121094,112.03214263916016,160.81924438476562
158.63658142089844,112.019287109375,160.7852020263672
158.50599670410156,111.96923828125,160.72024536132812
158.72459411621094,112.01881408691406,160.8048553466797
158.66693115234375,112.0326919555664,160.7880096435547
158.4257049560547,111.9571304321289,160.72740173339844
158.5602569580078,112.002685546875,160.82635498046875
158.5535888671875,111.99160766601562,160.8057861328125
158.48179626464844,111.91300201416016,160.74644470214844
158.61375427246094,112.00745391845703,160.86927795410156
158.59130859375,112.02055358886719,160.8455810546875
158.47177124023438,112.0199966430664,160.79458618164062
158.6813201904297,112.0134506225586,160.77931213378906
158.64993286132812,112.02383422851562,160.79473876953125
158.42962646484375,112.02014923095703,160.7855987548828
158.56793212890625,112.03639221191406,160.74522399902344
158.61146545410156,112.02936553955078,160.75823974609375
158.4261474609375,112.04244995117188,160.7665252685547
158.62677001953125,112.02750396728516,160.7548828125
158.5200653076172,112.05000305175781,160.74803161621094
158.48623657226562,112.02840423583984,160.74696350097656
158.69712829589844,112.08464050292969,160.8033905029297
158.61294555664062,112.02960205078125,160.77540588378906
158.49099731445312,112.0160140991211,160.7112579345703
158.66639709472656,112.05999755859375,160.73828125
158.5953369140625,112.07220458984375,160.76690673828125
158.42459106445312,111.98218536376953,160.66818237304688
158.67677307128906,112.06083679199219,160.73275756835938
158.5620880126953,112.07141876220703,160.7435302734375
158.48219299316406,111.9914779663086,160.65457153320312
158.6582489013672,112.05701446533203,160.72833251953125
158.57040405273438,112.05195617675781,160.74464416503906
158.4071807861328,111.98097229003906,160.6604766845703
158.67041015625,112.09300994873047,160.771240234375
158.612548828125,112.0756607055664,160.74734497070312
158.36917114257812,112.01129150390625,160.69140625
158.57212829589844,112.09453582763672,160.77281188964844
158.5663299560547,112.09966278076172,160.7615966796875
158.37466430664062,112.01499938964844,160.69573974609375
158.5758819580078,112.11561584472656,160.77574157714844
158.36878967285156,112.08829498291016,160.7534942626953
158.3806915283203,112.0778579711914,160.73977661132812
158.4320068359375,112.13742065429688,160.82003784179688
158.34349060058594,112.14208221435547,160.7886199951172
158.2501220703125,112.0643081665039,160.72500610351562
158.53602600097656,112.16437530517578,160.83612060546875
158.43435668945312,112.1400146484375,160.80709838867188
158.34432983398438,112.0737533569336,160.7282257080078
158.435546875,112.14218139648438,160.77877807617188
158.4738006591797,112.12471008300781,160.77767944335938
158.26710510253906,112.06198120117188,160.7071990966797
158.46315002441406,112.12939453125,160.80047607421875
158.4195098876953,112.12625885009766,160.79429626464844
158.35276794433594,112.08290100097656,160.73487854003906
158.50885009765625,112.10636901855469,160.78656005859375
158.48385620117188,112.13192749023438,160.7556610107422
158.33973693847656,112.08136749267578,160.6973876953125
158.4109649658203,112.0720443725586,160.68844604492188
158.30197143554688,112.04866027832031,160.6317596435547
158.48934936523438,112.11168670654297,160.71546936035156
158.45155334472656,112.08628845214844,160.6939239501953
158.44667053222656,112.0388412475586,160.63331604003906
158.6173095703125,112.09930419921875,160.6750946044922
158.70265197753906,112.1295394897461,160.69065856933594
158.49349975585938,112.05101776123047,160.6273651123047
158.5886993408203,112.1175537109375,160.6967315673828
158.62588500976562,112.10287475585938,160.68731689453125
158.48703002929688,112.04996490478516,160.5728302001953
158.58847045898438,112.13080596923828,160.67620849609375
158.54371643066406,112.13581085205078,160.70628356933594
158.4102325439453,112.0753173828125,160.6116485595703
158.69711303710938,112.1875,160.748046875
158.61131286621094,112.18562316894531,160.75384521484375
158.3916778564453,112.18842315673828,160.71435546875
158.59165954589844,112.2066650390625,160.78768920898438
158.5199737548828,112.21739959716797,160.77496337890625
158.37158203125,112.16731262207031,160.75624084472656
158.4606475830078,112.22905731201172,160.8105926513672
158.51744079589844,112.22500610351562,160.80624389648438
158.40933227539062,112.19715118408203,160.7896728515625
158.63526916503906,112.2122802734375,160.8609619140625
158.67138671875,112.24305725097656,160.86131286621094
158.38519287109375,112.15135955810547,160.80545043945312
158.5918426513672,112.22260284423828,160.87661743164062
158.48585510253906,112.22036743164062,160.86358642578125
158.4302215576172,112.18378448486328,160.8147430419922
158.5801544189453,112.15003204345703,160.80796813964844
158.5970001220703,112.15030670166016,160.79112243652344
158.50230407714844,112.13006591796875,160.76895141601562
158.64830017089844,112.18809509277344,160.82107543945312
158.5679168701172,112.15902709960938,160.80784606933594
158.4515380859375,112.135498046875,160.74851989746094
158.64942932128906,112.17610931396484,160.78765869140625
158.676025390625,112.19678497314453,160.80392456054688
158.46038818359375,112.14639282226562,160.73011779785156
158.75819396972656,112.22016906738281,160.81654357910156
158.71653747558594,112.19342803955078,160.79344177246094
158.56390380859375,112.13998413085938,160.71697998046875
158.73492431640625,112.20635223388672,160.78271484375
158.66793823242188,112.16140747070312,160.7567596435547
158.6595916748047,112.11283111572266,160.71615600585938
158.8319549560547,112.2148666381836,160.81307983398438
158.7139434814453,112.162841796875,160.7461395263672
158.5999298095703,112.10896301269531,160.7203826904297
158.7538299560547,112.18424987792969,160.77633666992188
158.76705932617188,112.19918060302734,160.77227783203125
158.52932739257812,112.1125259399414,160.68666076660156
158.7010040283203,112.1864013671875,160.77145385742188
158.6110382080078,112.16637420654297,160.75425720214844
158.5224151611328,112.13579559326172,160.7187957763672
158.63853454589844,112.19429779052734,160.795166015625
158.47671508789062,112.19104766845703,160.7824249267578
158.39186096191406,112.1452407836914,160.73193359375
158.4359893798828,112.28123474121094,160.8638153076172
158.4075164794922,112.25605773925781,160.85015869140625
158.20687866210938,112.18640899658203,160.7866973876953
158.2801513671875,112.19498443603516,160.7823486328125
158.3074493408203,112.18687438964844,160.78224182128906
158.47064208984375,112.22802734375,160.8220977783203
158.40652465820312,112.23567962646484,160.82850646972656
158.43666076660156,112.17342376708984,160.74021911621094
158.5504913330078,112.21228790283203,160.79476928710938
158.5984344482422,112.21263885498047,160.79966735839844
158.45880126953125,112.15580749511719,160.7421875
158.61685180664062,112.21241760253906,160.8275909423828
158.68048095703125,112.21527099609375,160.83067321777344
158.501953125,112.1319351196289,160.73736572265625
158.61959838867188,112.20559692382812,160.83912658691406
158.64334106445312,112.186279296875,160.827392578125
158.48434448242188,112.15988159179688,160.79563903808594
158.6763153076172,112.16913604736328,160.82740783691406
158.7737579345703,112.17852783203125,160.82374572753906
158.56016540527344,112.1138687133789,160.79437255859375
158.73077392578125,112.1745376586914,160.8143768310547
158.72048950195312,112.14494323730469,160.82052612304688
158.52642822265625,112.10774993896484,160.75820922851562
158.620361328125,112.10517120361328,160.7373046875
158.70606994628906,112.10257720947266,160.75323486328125
158.5037384033203,112.07144927978516,160.703857421875
158.6793975830078,112.09181213378906,160.71087646484375
158.78005981445312,112.05255126953125,160.71409606933594
158.6398468017578,112.02571868896484,160.66014099121094
158.72744750976562,112.04877471923828,160.6873321533203
158.69375610351562,112.06858825683594,160.71173095703125
158.54421997070312,112.01508331298828,160.68948364257812
158.776123046875,112.06916809082031,160.75885009765625
158.6859893798828,112.07703399658203,160.72218322753906
158.54876708984375,112.01728820800781,160.7261962890625
158.6944122314453,112.05573272705078,160.78799438476562
158.72146606445312,112.08047485351562,160.77410888671875
158.57041931152344,112.02359008789062,160.73487854003906
158.71051025390625,112.08128356933594,160.81373596191406
158.6090087890625,112.08281707763672,160.7983856201172
158.49041748046875,112.04943084716797,160.78001403808594
158.63934326171875,112.05289459228516,160.81422424316406
158.5883331298828,112.0862045288086,160.79580688476562
158.40284729003906,112.04464721679688,160.7411651611328
158.47032165527344,112.10736083984375,160.81961059570312
158.56436157226562,112.07635498046875,160.7858123779297
158.46286010742188,112.01738739013672,160.780517578125
158.54244995117188,112.04096984863281,160.79725646972656
158.6233673095703,112.04694366455078,160.84898376464844
158.5344696044922,111.9909439086914,160.75906372070312
158.62576293945312,112.08343505859375,160.81407165527344
158.65960693359375,112.04576110839844,160.8243408203125
158.58973693847656,112.02984619140625,160.7864227294922
158.66883850097656,112.05374908447266,160.8365478515625
158.73391723632812,112.05305480957031,160.79747009277344
158.68836975097656,112.01700592041016,160.73631286621094
158.8314666748047,112.07284545898438,160.77413940429688
158.8280792236328,112.0561752319336,160.79043579101562
158.6477813720703,112.03650665283203,160.75653076171875
158.80255126953125,112.03739166259766,160.7750244140625
158.81590270996094,112.05008697509766,160.79541015625
158.53123474121094,112.011962890625,160.7039337158203
158.62428283691406,111.99693298339844,160.6515655517578
158.5980987548828,111.94255065917969,160.59828186035156
158.81338500976562,111.9731674194336,160.628173828125
158.7955322265625,112.02235412597656,160.654541015625
158.75851440429688,111.95848083496094,160.60084533691406
158.9398193359375,111.99777221679688,160.6797637939453
158.9485626220703,112.01871490478516,160.65098571777344
158.6466827392578,111.92266082763672,160.5692596435547
158.91676330566406,111.91329193115234,160.61700439453125
158.8559112548828,111.90898895263672,160.61434936523438
158.77212524414062,112.08206939697266,160.7481231689453
158.73086547851562,111.92481994628906,160.61981201171875
158.78123474121094,111.99024200439453,160.64376831054688
158.66773986816406,112.01334381103516,160.66455078125
159.03916931152344,112.12230682373047,160.83316040039062
158.82733154296875,112.0560073852539,160.75242614746094
158.70201110839844,111.99785614013672,160.68234252929688
158.9618377685547,112.06079864501953,160.7710418701172
159.03684997558594,112.05300903320312,160.76832580566406
158.636962890625,111.94302368164062,160.6714324951172
158.9405517578125,112.00047302246094,160.7287139892578
158.90554809570312,111.99618530273438,160.72320556640625
158.74740600585938,111.93363952636719,160.659423828125
158.90277099609375,111.99044036865234,160.71652221679688
158.92333984375,112.02233123779297,160.73573303222656
158.72503662109375,111.93270874023438,160.65606689453125
158.92076110839844,111.99979400634766,160.70492553710938
158.83029174804688,111.99523162841797,160.72006225585938
158.83197021484375,111.89030456542969,160.62966918945312
158.8995361328125,111.96659851074219,160.70040893554688
158.94891357421875,111.94410705566406,160.67593383789062
158.65419006347656,111.86185455322266,160.5693359375
158.90509033203125,111.95283508300781,160.6401824951172
158.80838012695312,111.92935943603516,160.5849609375
158.8965301513672,111.96504211425781,160.6058349609375
158.98204040527344,111.90126037597656,160.5873260498047
158.9766082763672,111.9404525756836,160.61184692382812
158.9121856689453,111.94086456298828,160.5908203125
159.12855529785156,111.96096801757812,160.60794067382812
159.12855529785156,111.90258026123047,160.5626983642578
158.9428253173828,111.94403076171875,160.55967712402344
159.20518493652344,112.00779724121094,160.6116180419922
159.1935272216797,112.00138092041016,160.63600158691406
158.99456787109375,111.9162826538086,160.524658203125
159.2248077392578,112.01164245605469,160.6435546875
159.16990661621094,111.99932098388672,160.61204528808594
158.97068786621094,111.94422149658203,160.59579467773438
158.98240661621094,111.94657897949219,160.5850372314453
159.01809692382812,111.9688720703125,160.627197265625
158.8833465576172,111.92501068115234,160.57028198242188
158.9766082763672,112.02545928955078,160.64889526367188
158.94668579101562,112.00013732910156,160.62881469726562
158.76312255859375,111.97262573242188,160.55787658691406
159.0063018798828,112.02791595458984,160.620849609375
159.06898498535156,112.04267883300781,160.6308135986328
158.82476806640625,111.94429779052734,160.5553741455078
158.98878479003906,112.03102111816406,160.61952209472656
158.9334716796875,112.03056335449219,160.6310577392578
158.89602661132812,111.97270965576172,160.57579040527344
158.8246307373047,111.97982788085938,160.57861328125
158.7550048828125,111.96530151367188,160.5365753173828
158.9139862060547,111.99602508544922,160.6082305908203
158.9204559326172,112.00633239746094,160.6017303466797
158.8078155517578,111.9437484741211,160.55690002441406
158.9392852783203,111.94348907470703,160.56234741210938
158.894775390625,111.94568634033203,160.556884765625
158.89801025390625,112.0326156616211,160.59030151367188
159.06704711914062,112.07461547851562,160.6156463623047
159.16661071777344,112.08544158935547,160.6439208984375
158.94952392578125,111.97994995117188,160.54347229003906
159.1852264404297,112.03282165527344,160.6031951904297
159.0981903076172,112.02657318115234,160.5926971435547
158.9982147216797,111.97618865966797,160.5567626953125
159.18458557128906,112.0347900390625,160.5935516357422
159.17601013183594,112.02291870117188,160.60545349121094
158.9203338623047,111.93363952636719,160.48907470703125
159.05917358398438,112.03858947753906,160.57736206054688
159.08859252929688,112.02336883544922,160.5838623046875
158.94947814941406,111.9503402709961,160.50462341308594
159.02294921875,111.98719024658203,160.60447692871094
158.97586059570312,111.99820709228516,160.60865783691406
158.78746032714844,111.97789764404297,160.54989624023438
159.00172424316406,112.02898406982422,160.62356567382812
158.89889526367188,111.98664855957031,160.59507751464844
158.75645446777344,111.96775817871094,160.5463104248047
159.0332794189453,112.03849792480469,160.64102172851562
158.9173583984375,112.03690338134766,160.64801025390625
158.78921508789062,111.96145629882812,160.5646209716797
158.93914794921875,112.03079986572266,160.62454223632812
158.87142944335938,112.02297973632812,160.64382934570312
158.8029327392578,112.03770446777344,160.64260864257812
158.8396759033203,112.04386138916016,160.63536071777344
158.826171875,112.04473114013672,160.62689208984375
158.6806182861328,112.06848907470703,160.62557983398438
158.95790100097656,112.1275634765625,160.72918701171875
158.8833770751953,112.11585998535156,160.7071533203125
158.7213592529297,112.05654907226562,160.6302032470703
158.9174346923828,112.09764099121094,160.7134246826172
158.89378356933594,112.0941390991211,160.72445678710938
158.7485809326172,112.01990509033203,160.6529083251953
158.9918670654297,112.08334350585938,160.7301025390625
158.9850616455078,112.0591812133789,160.74900817871094
158.73248291015625,112.02406311035156,160.65911865234375
158.8390350341797,112.07644653320312,160.70184326171875
158.76829528808594,112.0286865234375,160.6537628173828
158.67185974121094,112.016845703125,160.62660217285156
158.79962158203125,112.07036590576172,160.63662719726562
158.85787963867188,112.04730987548828,160.62631225585938
158.7244110107422,112.02719116210938,160.60923767089844
158.84678649902344,112.09453582763672,160.6752166748047
158.75741577148438,112.11921691894531,160.677001953125
158.76791381835938,112.01156616210938,160.55763244628906
158.91940307617188,112.09864807128906,160.6189727783203
158.8303680419922,112.05237579345703,160.61517333984375
158.7803192138672,112.01937866210938,160.55601501464844
158.9073028564453,112.05337524414062,160.5941619873047
158.72911071777344,112.04365539550781,160.59249877929688
158.7627410888672,112.02689361572266,160.556884765625
158.7796173095703,112.06649780273438,160.59698486328125
158.52223205566406,112.02593994140625,160.5319366455078
158.65408325195312,112.09840393066406,160.62925720214844
158.66854858398438,112.08833312988281,160.6185760498047
158.5730438232422,112.04849243164062,160.56039428710938
158.58798217773438,112.03438568115234,160.56776428222656
158.6433563232422,112.0678482055664,160.5687255859375
158.5555419921875,112.15091705322266,160.5800323486328
158.73565673828125,112.17802429199219,160.6280059814453
158.74110412597656,112.21688842773438,160.62518310546875
158.54315185546875,112.11396789550781,160.57595825195312
158.65341186523438,112.16397094726562,160.6052703857422
158.63575744628906,112.16712188720703,160.62197875976562
158.46539306640625,112.10411834716797,160.57960510253906
158.64739990234375,112.1559829711914,160.65086364746094
158.67469787597656,112.14910888671875,160.65333557128906
158.53909301757812,112.08561706542969,160.61256408691406
158.6442108154297,112.16971588134766,160.6799774169922
158.62940979003906,112.1677474975586,160.6638946533203
158.45144653320312,112.14404296875,160.6356201171875
158.695556640625,112.21180725097656,160.712158203125
158.75965881347656,112.18415832519531,160.69033813476562
158.6776580810547,112.12223815917969,160.6555938720703
158.88128662109375,112.15829467773438,160.70591735839844
158.83660888671875,112.14984893798828,160.71400451660156
158.6455841064453,112.13985443115234,160.69480895996094
158.93115234375,112.1556167602539,160.69923400878906
158.85751342773438,112.12213134765625,160.68032836914062
158.71018981933594,112.14263153076172,160.7073211669922
158.91925048828125,112.19912719726562,160.74575805664062
158.9300537109375,112.18981170654297,160.73117065429688
158.7895965576172,112.1221923828125,160.65155029296875
158.9748992919922,112.19632720947266,160.71585083007812
158.93663024902344,112.15846252441406,160.7189483642578
158.85659790039062,112.08838653564453,160.60891723632812
158.9008026123047,112.16217041015625,160.66920471191406
159.0163116455078,112.1637191772461,160.68951416015625
158.70884704589844,112.0851821899414,160.60952758789062
158.9964599609375,112.16348266601562,160.6802520751953
158.96871948242188,112.16504669189453,160.677001953125
158.81410217285156,112.12698364257812,160.5992431640625
158.8578643798828,112.09794616699219,160.64569091796875
158.88099670410156,112.17430114746094,160.6742401123047
158.7377166748047,112.17295837402344,160.6942596435547
158.8961181640625,112.17232513427734,160.67971801757812
158.8316650390625,112.14791107177734,160.6931915283203
158.65391540527344,112.13865661621094,160.71087646484375
158.80584716796875,112.14851379394531,160.69839477539062
158.89031982421875,112.15614318847656,160.72232055664062
158.74740600585938,112.12309265136719,160.7064666748047
158.97140502929688,112.18113708496094,160.75845336914062
158.7964324951172,112.15628051757812,160.7515869140625
158.7250213623047,112.16988372802734,160.76513671875
158.92684936523438,112.20293426513672,160.796630859375
158.81529235839844,112.19551086425781,160.8201904296875
158.69691467285156,112.11815643310547,160.747314453125
158.89414978027344,112.16857147216797,160.86241149902344
158.80264282226562,112.16454315185547,160.8096466064453
158.6475830078125,112.15021514892578,160.78028869628906
158.6293487548828,112.13613891601562,160.74176025390625
158.5694122314453,112.12713623046875,160.77561950683594
158.76385498046875,112.16077423095703,160.83644104003906
158.66043090820312,112.15792083740234,160.8103485107422
158.4850311279297,112.0999526977539,160.7620849609375
158.6319580078125,112.1107406616211,160.7812042236328
158.58900451660156,112.08287048339844,160.77308654785156
158.62425231933594,112.18400573730469,160.82901000976562
158.8191375732422,112.21875762939453,160.88613891601562
158.80287170410156,112.20492553710938,160.88473510742188
158.5389862060547,112.0859603881836,160.79859924316406
158.71788024902344,112.13720703125,160.82989501953125
158.7155303955078,112.13691711425781,160.81858825683594
158.59210205078125,112.07291412353516,160.7797088623047
158.7940673828125,112.12785339355469,160.8451690673828
158.79676818847656,112.11607360839844,160.85040283203125
158.6111602783203,112.03356170654297,160.7631072998047
158.80618286132812,112.09819793701172,160.8081817626953
158.6343994140625,112.071044921875,160.76803588867188
158.55381774902344,112.00360107421875,160.69924926757812
158.71139526367188,112.0522232055664,160.74368286132812
158.85568237304688,112.05607604980469,160.7488250732422
158.63685607910156,111.98081970214844,160.64666748046875
158.76138305664062,112.08560943603516,160.76290893554688
158.7476806640625,112.09922790527344,160.78038024902344
158.6325225830078,112.05024719238281,160.73712158203125
158.82688903808594,112.0998764038086,160.77232360839844
158.72357177734375,112.0997085571289,160.78492736816406
158.52333068847656,112.11886596679688,160.80975341796875
158.7431640625,112.10504150390625,160.78970336914062
158.70123291015625,112.09850311279297,160.765380859375
158.4667205810547,112.115478515625,160.82177734375
158.77296447753906,112.17144012451172,160.86476135253906
158.60389709472656,112.16032409667969,160.8563232421875
158.473876953125,112.06920623779297,160.7469482421875
158.6995086669922,112.14389038085938,160.8201141357422
158.59982299804688,112.12837219238281,160.7947540283203
158.46099853515625,112.08820343017578,160.74786376953125
158.54481506347656,112.11959075927734,160.79110717773438
158.52197265625,112.11428833007812,160.77536010742188
158.44473266601562,112.05230712890625,160.72926330566406
158.55064392089844,112.11997985839844,160.80079650878906
158.40310668945312,112.13871002197266,160.80738830566406
158.1485137939453,112.11740112304688,160.7860107421875
158.3026885986328,112.14215850830078,160.8355712890625
158.356689453125,112.1507339477539,160.84861755371094
158.17547607421875,112.04796600341797,160.76632690429688
158.58412170410156,112.11270141601562,160.8385467529297
158.42507934570312,112.0958480834961,160.83811950683594
158.2559814453125,112.02980041503906,160.74339294433594
158.44264221191406,112.04582977294922,160.79249572753906
158.5283203125,112.06214904785156,160.78306579589844
158.280517578125,112.01830291748047,160.73098754882812
158.518798828125,112.07606506347656,160.81080627441406
158.62738037109375,112.08134460449219,160.7548828125
158.5749053955078,112.02169036865234,160.71148681640625
158.8473358154297,112.07473754882812,160.73641967773438
158.8290252685547,112.10922241210938,160.7480010986328
158.6024627685547,112.00499725341797,160.62905883789062
158.54119873046875,112.00484466552734,160.6573486328125
158.5774383544922,111.98353576660156,160.64114379882812
158.80662536621094,112.08335876464844,160.7274169921875
158.7007598876953,112.04773712158203,160.68353271484375
158.65927124023438,112.0075454711914,160.66810607910156
158.74510192871094,112.05215454101562,160.68295288085938
158.74806213378906,112.06626892089844,160.69503784179688
158.62196350097656,112.01216125488281,160.65443420410156
158.7806854248047,112.08329772949219,160.70167541503906
158.73358154296875,112.08917999267578,160.69451904296875
158.5203857421875,112.03351593017578,160.65438842773438
158.6554718017578,112.10639190673828,160.6968994140625
158.64306640625,112.09812927246094,160.715576171875
158.44381713867188,112.04219055175781,160.6432647705078
158.59193420410156,112.13108825683594,160.70277404785156
158.6885528564453,112.11336517333984,160.71844482421875
158.40589904785156,112.0693588256836,160.66107177734375
158.53338623046875,112.13246154785156,160.7087860107422
158.5112762451172,112.14674377441406,160.7147979736328
158.34542846679688,112.09033203125,160.6631622314453
158.59017944335938,112.16214752197266,160.7322540283203
158.54920959472656,112.1434326171875,160.7316436767578
158.47845458984375,112.1180648803711,160.69012451171875
158.625244140625,112.14057159423828,160.73098754882812
158.6705780029297,112.12603759765625,160.69076538085938
158.48463439941406,112.07010650634766,160.66163635253906
158.64230346679688,112.11730194091797,160.72471618652344
158.6684112548828,112.13818359375,160.69522094726562
158.63812255859375,112.07617950439453,160.6365966796875
158.87586975097656,112.11276245117188,160.6980438232422
158.7445831298828,112.07917785644531,160.70584106445312
158.5877227783203,112.08946990966797,160.67298889160156
158.76536560058594,112.09539794921875,160.7010955810547
158.65652465820312,112.09317779541016,160.67645263671875
158.63796997070312,112.08220672607422,160.6962127685547
158.78045654296875,112.02745056152344,160.6712646484375
158.7703094482422,112.02348327636719,160.6767578125
158.62791442871094,112.04890441894531,160.63209533691406
158.81419372558594,112.12101745605469,160.6919403076172
158.76405334472656,112.09589385986328,160.67153930664062
158.6826934814453,112.04000854492188,160.58889770507812
158.84197998046875,112.10262298583984,160.65289306640625
158.808349609375,112.10891723632812,160.6352081298828
158.64950561523438,112.02998352050781,160.5826416015625
158.83270263671875,112.15060424804688,160.6807861328125
158.7001953125,112.12303161621094,160.65213012695312
158.56134033203125,112.05951690673828,160.62278747558594
158.67431640625,112.13965606689453,160.68679809570312
158.48292541503906,112.13154602050781,160.6697540283203
158.45614624023438,112.0751724243164,160.62762451171875
158.55517578125,112.1546630859375,160.73934936523438
158.48110961914062,112.16258239746094,160.69741821289062
158.36888122558594,112.12474060058594,160.6416778564453
158.59371948242188,112.15065002441406,160.70716857910156
158.5072479248047,112.17528533935547,160.6959228515625
158.31187438964844,112.10203552246094,160.6470489501953
158.6229248046875,112.16898345947266,160.70809936523438
158.55084228515625,112.14749145507812,160.69850158691406
158.40188598632812,112.11253356933594,160.6640625
158.34091186523438,112.11121368408203,160.67564392089844
158.25775146484375,112.07494354248047,160.63311767578125
158.41552734375,112.10118865966797,160.65589904785156
158.488037109375,112.11141204833984,160.70504760742188
158.3395233154297,112.04173278808594,160.61622619628906
158.68614196777344,112.01129150390625,160.58108520507812
158.55221557617188,112.00164031982422,160.55068969726562
158.49960327148438,112.18438720703125,160.6954803466797
158.70358276367188,112.17386627197266,160.72340393066406
158.68252563476562,112.17908477783203,160.72183227539062
158.5251007080078,112.04524993896484,160.63331604003906
158.6910858154297,112.11761474609375,160.6581573486328
158.80433654785156,112.11444854736328,160.6749267578125
158.6003875732422,112.03792572021484,160.6151885986328
158.8633575439453,112.1209487915039,160.65301513671875
158.82521057128906,112.10763549804688,160.6615447998047
158.61891174316406,111.98873138427734,160.56167602539062
158.6829376220703,112.05603790283203,160.64144897460938
158.69886779785156,112.06810760498047,160.62777709960938
158.4852294921875,111.98274230957031,160.533203125
158.61842346191406,112.0405502319336,160.61737060546875
158.67303466796875,112.05403900146484,160.62303161621094
158.51904296875,111.97334289550781,160.5780792236328
158.64874267578125,112.08999633789062,160.66783142089844
158.58177185058594,112.06578063964844,160.66018676757812
158.31332397460938,112.03871154785156,160.63365173339844
158.336669921875,112.11707305908203,160.70947265625
158.40438842773438,112.11412811279297,160.7347412109375
158.32371520996094,112.01292419433594,160.5970916748047
158.47923278808594,112.07357788085938,160.643310546875
158.4859619140625,112.0485610961914,160.66864013671875
158.2877655029297,112.07559967041016,160.64146423339844
158.6752471923828,112.04251861572266,160.6398162841797
158.56068420410156,112.0815200805664,160.64907836914062
158.5467071533203,112.0599365234375,160.621826171875
158.76707458496094,112.08271026611328,160.66156005859375
158.78543090820312,112.07660675048828,160.61598205566406
158.69969177246094,112.05839538574219,160.66424560546875
158.73770141601562,112.1108169555664,160.732177734375
158.79537963867188,112.11429595947266,160.70736694335938
158.54652404785156,112.01553344726562,160.61256408691406
158.77761840820312,112.10484313964844,160.70513916015625
158.79562377929688,112.10932159423828,160.68556213378906
158.5948028564453,112.03948974609375,160.6350555419922
158.74618530273438,112.0552978515625,160.66226196289062
158.64202880859375,112.03338623046875,160.64678955078125
158.5894317626953,111.97660064697266,160.6132354736328
158.859130859375,112.04495239257812,160.6618194580078
158.84182739257812,112.02980041503906,160.64852905273438
158.76258850097656,111.9915771484375,160.58226013183594
158.9192657470703,112.03936004638672,160.62246704101562
158.91220092773438,112.05208587646484,160.63343811035156
158.6853790283203,111.97036743164062,160.53260803222656
158.93576049804688,112.04296875,160.594970703125
158.94900512695312,112.0090560913086,160.57017517089844
158.79074096679688,111.98739624023438,160.50527954101562
158.99447631835938,112.00243377685547,160.54464721679688
158.98867797851562,112.02796936035156,160.54180908203125
158.83688354492188,111.95509338378906,160.49703979492188
158.90643310546875,111.95896911621094,160.54287719726562
158.73483276367188,111.93537902832031,160.4485626220703
158.97216796875,112.02610778808594,160.5286865234375
158.9431610107422,112.00244903564453,160.5299835205078
158.74168395996094,111.99811553955078,160.4879913330078
158.87911987304688,112.07594299316406,160.53504943847656
159.03704833984375,112.0760269165039,160.54840087890625
158.78042602539062,112.0084228515625,160.4929962158203
158.96192932128906,112.0404281616211,160.52980041503906
158.9125518798828,112.0322036743164,160.53421020507812
158.77374267578125,111.96952819824219,160.51463317871094
158.9063262939453,112.05741119384766,160.55870056152344
158.97621154785156,112.05094146728516,160.56991577148438
158.5885009765625,111.97724151611328,160.5018768310547
158.85488891601562,112.04704284667969,160.59542846679688
158.78953552246094,112.02947998046875,160.58224487304688
158.6165771484375,111.97727966308594,160.54608154296875
158.84552001953125,112.00445556640625,160.603271484375
158.83200073242188,112.00588989257812,160.59849548339844
158.57879638671875,111.95095825195312,160.58151245117188
158.822509765625,112.0113754272461,160.6339874267578
158.78427124023438,111.98487854003906,160.6313018798828
158.74427795410156,111.93538665771484,160.5669403076172
158.8424530029297,112.00465393066406,160.63046264648438
158.78631591796875,112.02020263671875,160.6186065673828
158.76063537597656,111.93466186523438,160.53089904785156
158.90603637695312,111.99996185302734,160.6044464111328
158.8738555908203,111.97757720947266,160.6029510498047
158.78038024902344,111.90660095214844,160.5311737060547
158.87957763671875,111.91754150390625,160.5770721435547
158.959716796875,111.93927764892578,160.5338897705078
158.81285095214844,111.95252990722656,160.52854919433594
158.98570251464844,111.96015930175781,160.5478515625
158.99819946289062,111.94902038574219,160.5423583984375
158.7206268310547,111.98696899414062,160.52162170410156
158.96153259277344,111.96238708496094,160.55882263183594
158.94259643554688,111.9889144897461,160.51751708984375
158.8376007080078,111.95843505859375,160.53631591796875
158.9475860595703,111.98487091064453,160.62283325195312
158.79171752929688,111.99320983886719,160.637451171875
158.76577758789062,111.94646453857422,160.57066345214844
158.9495391845703,112.0093765258789,160.6236114501953
158.80636596679688,112.03362274169922,160.64927673339844
158.67971801757812,111.95205688476562,160.57008361816406
158.86102294921875,112.04135131835938,160.665771484375
158.7406768798828,112.0089340209961,160.64044189453125
158.61074829101562,111.97254943847656,160.62046813964844
158.77423095703125,112.00506591796875,160.6546173095703
158.90469360351562,112.02301788330078,160.67604064941406
158.6868133544922,111.93142700195312,160.5977325439453
158.91983032226562,112.05437469482422,160.7128143310547
158.77967834472656,112.03486633300781,160.72496032714844
158.64202880859375,111.98420715332031,160.63507080078125
158.8507537841797,112.031982421875,160.69407653808594
158.90850830078125,112.02903747558594,160.7152862548828
158.81874084472656,111.97277069091797,160.63674926757812
159.08277893066406,112.07197570800781,160.70570373535156
158.9715576171875,112.03134155273438,160.63941955566406
158.92076110839844,111.99919128417969,160.6175537109375
158.86862182617188,112.00669860839844,160.58534240722656
158.87380981445312,111.99073791503906,160.5550079345703
158.92990112304688,112.01705932617188,160.6059112548828
159.00811767578125,112.07135009765625,160.60806274414062
158.82241821289062,112.0315933227539,160.5440216064453
159.03883361816406,112.10216522216797,160.57293701171875
159.08775329589844,112.10086822509766,160.59617614746094
158.92929077148438,112.03193664550781,160.54345703125
159.2307586669922,112.14521789550781,160.62692260742188
159.29519653320312,112.16153717041016,160.62228393554688
159.11669921875,112.0282211303711,160.5260009765625
159.296142578125,112.09303283691406,160.5847625732422
159.2783660888672,112.0968246459961,160.57911682128906
159.10623168945312,112.04952239990234,160.51417541503906
159.28233337402344,112.10868072509766,160.5650177001953
159.30172729492188,112.10673522949219,160.57376098632812
159.07940673828125,112.04097747802734,160.49551391601562
159.25857543945312,112.13306427001953,160.5840301513672
159.1334686279297,112.10647583007812,160.5725860595703
158.9779052734375,112.07176208496094,160.54615783691406
159.16806030273438,112.12702941894531,160.62124633789062
159.1487274169922,112.1259765625,160.6212615966797
158.93246459960938,112.06021118164062,160.5365753173828
159.05812072753906,112.12252807617188,160.60223388671875
159.12513732910156,112.13249969482422,160.6101531982422
158.90194702148438,112.06021118164062,160.5465087890625
159.03323364257812,112.08035278320312,160.59095764160156
158.9246826171875,112.09810638427734,160.59344482421875
158.8436279296875,112.09950256347656,160.6054229736328
159.04779052734375,112.15458679199219,160.67276000976562
159.05599975585938,112.13741302490234,160.58892822265625
158.83816528320312,112.14244842529297,160.64646911621094
159.0771484375,112.2137222290039,160.6938934326172
159.1273193359375,112.21800231933594,160.6949920654297
158.87489318847656,112.12782287597656,160.58663940429688
159.17724609375,112.21544647216797,160.68832397460938
159.16294860839844,112.20509338378906,160.68246459960938
158.92225646972656,112.13428497314453,160.60604858398438
159.10934448242188,112.19287872314453,160.6764678955078
159.04762268066406,112.21624755859375,160.6988983154297
158.91712951660156,112.13959503173828,160.6266326904297
159.12022399902344,112.19644927978516,160.68455505371094
159.03343200683594,112.1702651977539,160.65774536132812
158.9088134765625,112.10677337646484,160.59774780273438
159.06997680664062,112.15631103515625,160.65147399902344
158.9922332763672,112.16034698486328,160.6447296142578
158.90814208984375,112.0860366821289,160.57383728027344
159.12155151367188,112.16555786132812,160.66061401367188
159.0684051513672,112.16844940185547,160.65272521972656
158.93528747558594,112.10581970214844,160.58746337890625
159.10044860839844,112.15413665771484,160.6619110107422
158.96929931640625,112.14835357666016,160.691162109375
158.8736114501953,112.10507202148438,160.61080932617188
159.04541015625,112.21614074707031,160.71656799316406
158.86924743652344,112.16586303710938,160.6878204345703
158.84947204589844,112.14143371582031,160.64442443847656
158.94361877441406,112.19670104980469,160.70802307128906
158.7529296875,112.20401763916016,160.712158203125
158.68161010742188,112.13746643066406,160.67161560058594
158.756103515625,112.17910766601562,160.68760681152344
158.7009735107422,112.13567352294922,160.66346740722656
158.77635192871094,112.18070220947266,160.74624633789062
158.8306427001953,112.1803207397461,160.73114013671875
158.65948486328125,112.1623306274414,160.7218780517578
158.74732971191406,112.23070526123047,160.75425720214844
158.90005493164062,112.2303695678711,160.7723846435547
158.60044860839844,112.16473388671875,160.7062530517578
158.8139190673828,112.21044921875,160.75306701660156
158.81370544433594,112.20195007324219,160.75308227539062
158.70513916015625,112.16590881347656,160.7264404296875
158.95834350585938,112.21256256103516,160.75978088378906
158.94686889648438,112.214111328125,160.76129150390625
158.67831420898438,112.14356231689453,160.69688415527344
158.8592987060547,112.2101821899414,160.77696228027344
158.8712615966797,112.21539306640625,160.7566375732422
158.78048706054688,112.12785339355469,160.7220916748047
158.85757446289062,112.20147705078125,160.7701873779297
158.8657989501953,112.18729400634766,160.77752685546875
158.64300537109375,112.13770294189453,160.7045135498047
158.80796813964844,112.20530700683594,160.7526397705078
158.8214874267578,112.2021484375,160.74468994140625
158.72161865234375,112.09868621826172,160.70115661621094
158.87130737304688,112.16329956054688,160.74270629882812
158.9105224609375,112.1726303100586,160.74192810058594
158.84713745117188,112.10628509521484,160.6572723388672
158.98855590820312,112.1539077758789,160.71697998046875
158.8948974609375,112.1231918334961,160.68182373046875
158.79708862304688,112.151123046875,160.71563720703125
159.0391387939453,112.22148132324219,160.7853240966797
158.9237823486328,112.24200439453125,160.78350830078125
158.79513549804688,112.13451385498047,160.7130584716797
159.05123901367188,112.21250915527344,160.7831268310547
158.95108032226562,112.22999572753906,160.78526306152344
158.88002014160156,112.15973663330078,160.7327423095703
159.00892639160156,112.23115539550781,160.81069946289062
158.80775451660156,112.23040008544922,160.83328247070312
158.64108276367188,112.17796325683594,160.7621612548828
158.81192016601562,112.2653579711914,160.83445739746094
158.81890869140625,112.20613861083984,160.81773376464844
158.6660919189453,112.18406677246094,160.81024169921875
158.79957580566406,112.234130859375,160.8590545654297
158.7307891845703,112.24832153320312,160.8806915283203
158.6053009033203,112.18907928466797,160.8032989501953
158.89569091796875,112.25960540771484,160.87388610839844
158.7601776123047,112.2571792602539,160.87530517578125
158.64114379882812,112.21876525878906,160.8184814453125
158.81007385253906,112.23322296142578,160.82894897460938
158.88809204101562,112.23161315917969,160.86904907226562
158.7611541748047,112.18543243408203,160.79690551757812
158.94203186035156,112.23103332519531,160.86724853515625
158.91751098632812,112.21621704101562,160.84608459472656
158.83419799804688,112.17481231689453,160.8032684326172
159.02053833007812,112.19902801513672,160.8444061279297
159.01016235351562,112.20346069335938,160.84182739257812
158.775634765625,112.1117172241211,160.72515869140625
158.95799255371094,112.17422485351562,160.7629852294922
158.859375,112.15960693359375,160.76686096191406
158.81988525390625,112.12870788574219,160.73387145996094
158.77291870117188,112.11024475097656,160.72923278808594
158.83819580078125,112.12003326416016,160.70751953125
158.92652893066406,112.1258773803711,160.71275329589844
158.96322631835938,112.12873840332031,160.70689392089844
158.8645782470703,112.07825469970703,160.64955139160156
159.05633544921875,112.12337493896484,160.69012451171875
159.0463409423828,112.14437866210938,160.69935607910156
158.85960388183594,112.09185791015625,160.65936279296875
159.0403594970703,112.12358856201172,160.70675659179688
159.08741760253906,112.13972473144531,160.71728515625
158.82826232910156,112.08918762207031,160.69061279296875
158.99148559570312,112.16851806640625,160.7850799560547
158.86941528320312,112.17569732666016,160.7733154296875
158.63128662109375,112.11015319824219,160.72048950195312
158.84303283691406,112.18145751953125,160.7778778076172
158.8321990966797,112.1803970336914,160.7965087890625
158.54440307617188,112.09765625,160.7406768798828
158.7480926513672,112.1772689819336,160.80564880371094
158.7425079345703,112.16665649414062,160.8109588623047
158.5773468017578,112.13675689697266,160.7664337158203
158.7313690185547,112.1612319946289,160.8269500732422
158.685302734375,112.20372009277344,160.8460235595703
158.62640380859375,112.125,160.77780151367188
158.71041870117188,112.18766021728516,160.86041259765625
158.61705017089844,112.13687133789062,160.82806396484375
158.54730224609375,112.08682250976562,160.79322814941406
158.66148376464844,112.17117309570312,160.8697967529297
158.69142150878906,112.18041229248047,160.8546142578125
158.6405792236328,112.0887680053711,160.7596893310547
158.8273162841797,112.15123748779297,160.83700561523438
158.81785583496094,112.15074157714844,160.84742736816406
158.6631317138672,112.15023040771484,160.8294219970703
158.72662353515625,112.10845184326172,160.82400512695312
158.66236877441406,112.10721588134766,160.84136962890625
158.57667541503906,112.07211303710938,160.82533264160156
158.8463897705078,112.13868713378906,160.90379333496094
158.7155303955078,112.12894439697266,160.865234375
158.48309326171875,112.06205749511719,160.82176208496094
158.6360626220703,112.14806365966797,160.8471221923828
158.67198181152344,112.12843322753906,160.88858032226562
158.4776153564453,112.04566955566406,160.79510498046875
158.45933532714844,112.10900115966797,160.84986877441406
158.65725708007812,112.11821746826172,160.84046936035156
158.53536987304688,112.04814910888672,160.78582763671875
158.6804656982422,112.08570861816406,160.79859924316406
158.69281005859375,112.11254119873047,160.7878875732422
158.4217529296875,112.02925109863281,160.7134552001953
158.5946807861328,112.13292694091797,160.79348754882812
158.7434539794922,112.09696960449219,160.8174285888672
158.4737548828125,112.04743194580078,160.7674560546875
158.74139404296875,112.11502838134766,160.83218383789062
158.52755737304688,112.10676574707031,160.8506317138672
158.36248779296875,112.03028106689453,160.78466796875
158.53724670410156,112.1098861694336,160.86305236816406
158.56932067871094,112.10015106201172,160.8666534423828
158.39974975585938,112.05270385742188,160.81784057617188
158.50534057617188,112.10633850097656,160.8991241455078
158.4854278564453,112.13758087158203,160.93289184570312
158.3346710205078,112.07931518554688,160.8292694091797
158.327392578125,112.07623291015625,160.81631469726562
158.1077880859375,112.03873443603516,160.78607177734375
158.3390350341797,112.13130950927734,160.8648681640625
158.3499298095703,112.10029602050781,160.8429412841797
158.22482299804688,112.07086181640625,160.78822326660156
158.3575439453125,112.11531066894531,160.82835388183594
158.27972412109375,112.1170883178711,160.85720825195312
158.1983642578125,112.06533813476562,160.7989959716797
158.39776611328125,112.09603881835938,160.83628845214844
158.39920043945312,112.0800552368164,160.826416015625
158.2478790283203,112.05071258544922,160.81015014648438
158.38296508789062,112.0999526977539,160.85682678222656
158.3648223876953,112.09860229492188,160.86029052734375
158.1946258544922,112.0140609741211,160.78933715820312
158.51397705078125,112.04608917236328,160.86996459960938
158.5084228515625,112.04960632324219,160.83485412597656
158.3753662109375,111.95821380615234,160.80282592773438
158.3190460205078,112.02922821044922,160.81710815429688
158.42706298828125,112.00552368164062,160.8163604736328
158.28189086914062,111.95008087158203,160.736083984375
158.4864959716797,112.01483154296875,160.78680419921875
158.48928833007812,112.00997924804688,160.78086853027344
158.38607788085938,111.97023010253906,160.6820526123047
158.61224365234375,112.02704620361328,160.7460479736328
158.56484985351562,112.02145385742188,160.73240661621094
158.38751220703125,111.95064544677734,160.67344665527344
158.51730346679688,111.99396514892578,160.7282257080078
158.6322479248047,111.97665405273438,160.73223876953125
158.4415740966797,112.00714874267578,160.73709106445312
158.580322265625,111.99431610107422,160.72171020507812
158.45089721679688,111.9963150024414,160.74365234375
158.32925415039062,112.01166534423828,160.74313354492188
158.31509399414062,112.02485656738281,160.73570251464844
158.41441345214844,111.99520111083984,160.76283264160156
158.06683349609375,111.98692321777344,160.7526397705078
158.37799072265625,111.97657775878906,160.74411010742188
158.3870086669922,111.95082092285156,160.75633239746094
158.2418670654297,111.94845581054688,160.71856689453125
158.39295959472656,111.9539566040039,160.69961547851562
158.3646240234375,111.95806884765625,160.67588806152344
158.3725128173828,111.98521423339844,160.6915283203125
158.46066284179688,111.987060546875,160.66302490234375
158.55361938476562,111.96338653564453,160.69979858398438
158.29600524902344,111.9816665649414,160.7251434326172
158.5322265625,111.94285583496094,160.66485595703125
158.43350219726562,111.95600128173828,160.63868713378906
158.38571166992188,111.99301147460938,160.71604919433594
158.59573364257812,111.98503112792969,160.69911193847656
158.58209228515625,111.97251892089844,160.6680145263672
158.3574981689453,111.97871398925781,160.65481567382812
158.54859924316406,111.98529052734375,160.65896606445312
158.68173217773438,111.98110961914062,160.64247131347656
158.42218017578125,112.00568389892578,160.65545654296875
158.5967559814453,111.97642517089844,160.62164306640625
158.51527404785156,111.93255615234375,160.58262634277344
158.49948120117188,111.953857421875,160.6283721923828
158.8124237060547,112.00951385498047,160.68508911132812
158.6429901123047,111.94757843017578,160.6300048828125
158.4831085205078,111.89300537109375,160.5476837158203
158.50564575195312,111.89176940917969,160.53070068359375
158.42623901367188,111.85137939453125,160.49734497070312
158.55902099609375,111.91513061523438,160.52825927734375
158.58338928222656,111.95529174804688,160.53326416015625
158.54527282714844,111.89627075195312,160.46632385253906
158.74864196777344,111.97415161132812,160.54031372070312
158.7627410888672,112.00911712646484,160.56044006347656
158.51724243164062,111.90036010742188,160.48985290527344
158.62026977539062,111.94569396972656,160.54220581054688
158.6470184326172,111.9501724243164,160.5385284423828
158.32752990722656,111.89826965332031,160.4978790283203
158.53587341308594,111.99412536621094,160.57794189453125
158.53672790527344,111.99060821533203,160.57847595214844
158.29588317871094,111.91769409179688,160.51966857910156
158.44801330566406,112.02022552490234,160.60574340820312
158.42356872558594,112.04757690429688,160.5946807861328
158.1988983154297,111.96649932861328,160.51673889160156
158.42857360839844,112.04344177246094,160.59986877441406
158.37533569335938,112.02141571044922,160.579345703125
158.1798553466797,111.9535140991211,160.532958984375
158.3349609375,112.03832244873047,160.5975799560547
158.38441467285156,112.03181457519531,160.6094970703125
158.0764923095703,111.9573745727539,160.5406036376953
158.3456268310547,112.03730010986328,160.62060546875
158.3790740966797,112.03936004638672,160.5926513671875
158.27696228027344,111.95599365234375,160.5099639892578
158.4010772705078,112.01127624511719,160.5757293701172
158.3463134765625,112.01677703857422,160.57798767089844
158.22752380371094,111.94682312011719,160.53579711914062
158.48501586914062,112.00473022460938,160.58871459960938
158.4366455078125,111.98482513427734,160.5529022216797
158.30325317382812,111.99703216552734,160.59567260742188
158.5436553955078,112.04755401611328,160.59396362304688
158.5166015625,112.04973602294922,160.6314697265625
158.44161987304688,111.9439926147461,160.53346252441406
158.52284240722656,112.03126525878906,160.60009765625
158.616455078125,112.02491760253906,160.57040405273438
158.4848175048828,111.95214080810547,160.4658203125
158.6992645263672,112.01386260986328,160.52032470703125
158.61203002929688,112.0230712890625,160.50421142578125
158.4678192138672,111.95220184326172,160.43179321289062
158.72479248046875,112.005859375,160.51141357421875
158.57199096679688,111.97537994384766,160.4370880126953
158.4185791015625,111.93852996826172,160.37059020996094
158.62429809570312,111.97515106201172,160.4243927001953
158.6306610107422,111.96484375,160.43380737304688
158.4167022705078,111.9051513671875,160.36093139648438
158.6334686279297,111.98062896728516,160.46116638183594
158.5555419921875,111.9947280883789,160.463623046875
158.38421630859375,111.93730163574219,160.4339599609375
158.5338592529297,111.97122955322266,160.521484375
158.4588165283203,111.9327621459961,160.48394775390625
158.37310791015625,111.90290069580078,160.4439239501953
158.44989013671875,111.97758483886719,160.5186767578125
158.4637908935547,111.9779052734375,160.51873779296875
158.26406860351562,111.95040130615234,160.47506713867188
158.52606201171875,112.0193862915039,160.53929138183594
158.56394958496094,112.03468322753906,160.56292724609375
158.22947692871094,111.95772552490234,160.45179748535156
158.21517944335938,111.9873275756836,160.50355529785156
158.24607849121094,111.95447540283203,160.46185302734375
158.46083068847656,112.03153228759766,160.53829956054688
158.39694213867188,111.96810913085938,160.47296142578125
158.29296875,111.97107696533203,160.4899139404297
158.3740997314453,111.98685455322266,160.49942016601562
158.43533325195312,112.00383758544922,160.50987243652344
158.2625732421875,111.96463012695312,160.47274780273438
158.40972900390625,112.00806427001953,160.5169677734375
158.40548706054688,112.00148010253906,160.52296447753906
158.25115966796875,111.96613311767578,160.511474609375
158.3564910888672,112.02432250976562,160.57034301757812
158.44821166992188,112.01433563232422,160.57232666015625
158.22152709960938,111.95086669921875,160.49046325683594
158.4825897216797,112.02009582519531,160.55723571777344
158.4145050048828,111.98401641845703,160.54222106933594
158.34161376953125,111.94831848144531,160.48509216308594
158.59422302246094,111.98957061767578,160.54498291015625
158.628173828125,111.98217010498047,160.54454040527344
158.38731384277344,111.87952423095703,160.4396514892578
158.60044860839844,111.94007110595703,160.4935302734375
158.54876708984375,111.94078063964844,160.4700469970703
158.43934631347656,111.84146881103516,160.42913818359375
158.59494018554688,111.90532684326172,160.47152709960938
158.67044067382812,111.921630859375,160.44725036621094
158.44845581054688,111.91264343261719,160.43618774414062
158.6776123046875,111.91581726074219,160.43699645996094
158.61715698242188,111.9060287475586,160.42471313476562
158.60501098632812,111.9372329711914,160.42823791503906
158.76321411132812,111.9171142578125,160.3900909423828
158.65821838378906,111.93228912353516,160.40513610839844
158.47035217285156,111.8753433227539,160.41685485839844
158.7489776611328,111.96345520019531,160.49330139160156
158.63714599609375,111.94947052001953,160.49185180664062
158.44471740722656,111.87545013427734,160.4107208251953
158.67384338378906,111.96125030517578,160.4684600830078
158.5628204345703,111.96044158935547,160.48182678222656
158.46331787109375,111.90042877197266,160.4095916748047
158.6546630859375,111.97679138183594,160.49610900878906
158.57977294921875,111.98768615722656,160.50303649902344
158.50547790527344,111.9217300415039,160.44837951660156
158.586669921875,111.98453521728516,160.50904846191406
158.57606506347656,111.96407318115234,160.48023986816406
158.35354614257812,111.90959167480469,160.44952392578125
158.52874755859375,111.97917175292969,160.5338134765625
158.5260009765625,111.9686050415039,160.53746032714844
158.39797973632812,111.9428482055664,160.4846954345703
158.62677001953125,111.95795440673828,160.5344696044922
158.49072265625,111.96407318115234,160.54420471191406
158.42233276367188,111.90121459960938,160.4860382080078
158.53713989257812,111.9664306640625,160.55479431152344
158.4713897705078,111.92320251464844,160.50595092773438
158.3257293701172,111.9091796875,160.4513397216797
158.53720092773438,111.95364379882812,160.51873779296875
158.5639190673828,111.93873596191406,160.52572631835938
158.2932891845703,111.86611938476562,160.41978454589844
158.42645263671875,111.93000030517578,160.52882385253906
158.31825256347656,111.95642852783203,160.5175018310547
158.2013702392578,111.94119262695312,160.478515625
158.22021484375,111.97080993652344,160.4927215576172
158.2206573486328,111.94026184082031,160.46083068847656
158.3073272705078,111.97752380371094,160.50840759277344
158.25067138671875,111.94685363769531,160.45828247070312
158.1931915283203,111.87330627441406,160.4244842529297
158.47103881835938,111.93379974365234,160.4441680908203
158.6304473876953,111.92855072021484,160.4285125732422
158.36642456054688,111.86522674560547,160.3968963623047
158.54469299316406,111.91015625,160.4253387451172
158.6575164794922,111.9191665649414,160.42599487304688
158.46673583984375,111.86418914794922,160.3742218017578
158.76722717285156,111.93535614013672,160.4395294189453
158.72427368164062,111.92574310302734,160.44090270996094
158.5126953125,111.87220764160156,160.38980102539062
158.70518493652344,111.9190673828125,160.46151733398438
158.6939697265625,111.93421173095703,160.4452667236328
158.48289489746094,111.85323333740234,160.4124755859375
158.7150115966797,111.92550659179688,160.50555419921875
158.51795959472656,111.92615509033203,160.50645446777344
158.38351440429688,111.90364837646484,160.4745330810547
158.55648803710938,111.93711853027344,160.5372772216797
158.4795684814453,111.95609283447266,160.5557861328125
158.39569091796875,111.8843002319336,160.47926330566406
158.6041717529297,111.9287338256836,160.5436248779297
158.4360809326172,111.91771697998047,160.5230255126953
158.3805389404297,111.96981048583984,160.5420379638672
158.49114990234375,111.9778823852539,160.56356811523438
158.43524169921875,112.03067779541016,160.5880126953125
158.31375122070312,111.97328186035156,160.52780151367188
158.62583923339844,112.0374984741211,160.6222686767578
158.57794189453125,112.04837036132812,160.5768585205078
158.42002868652344,111.96882629394531,160.5108642578125
158.46617126464844,112.01164245605469,160.5540771484375
158.54896545410156,112.0156478881836,160.58810424804688
158.3539581298828,111.95685577392578,160.5253143310547
158.56576538085938,112.00711822509766,160.60107421875
158.54034423828125,111.99980926513672,160.56695556640625
158.409423828125,111.92642974853516,160.51156616210938
158.5440673828125,112.01168823242188,160.57310485839844
158.4710693359375,111.9936294555664,160.5879669189453
158.36221313476562,111.93107604980469,160.4808807373047
158.57437133789062,112.0075454711914,160.56813049316406
158.61074829101562,112.01048278808594,160.5565185546875
158.4359588623047,111.94561004638672,160.47454833984375
158.5862274169922,112.00146484375,160.5277099609375
158.58538818359375,111.9856948852539,160.52879333496094
158.45623779296875,111.9201889038086,160.43312072753906
158.66644287109375,111.97215270996094,160.50970458984375
158.6326446533203,111.93411254882812,160.4763946533203
158.46649169921875,111.89681243896484,160.42388916015625
158.68653869628906,111.92008972167969,160.47451782226562
158.6729736328125,111.9410171508789,160.4611358642578
158.4998779296875,111.88713073730469,160.38978576660156
158.6238555908203,111.99293518066406,160.49722290039062
158.54476928710938,112.01763153076172,160.501953125
158.3454132080078,111.95915222167969,160.44166564941406
158.48202514648438,112.02008056640625,160.49755859375
158.29104614257812,112.00460052490234,160.51133728027344
158.22784423828125,111.99699401855469,160.48158264160156
158.3091278076172,111.97943878173828,160.5032501220703
158.1619415283203,111.97135162353516,160.49252319335938
158.34478759765625,112.04104614257812,160.5982208251953
158.3855438232422,112.02198791503906,160.60836791992188
158.21311950683594,111.98666381835938,160.5845947265625
158.38339233398438,112.07637786865234,160.6485595703125
158.4806671142578,112.09685516357422,160.6539306640625
158.14224243164062,112.01420593261719,160.56765747070312
158.30014038085938,112.07775115966797,160.63430786132812
158.28929138183594,112.06659698486328,160.62879943847656
158.05699157714844,112.01323699951172,160.5908660888672
158.23526000976562,112.07636260986328,160.62474060058594
158.2467041015625,112.07182312011719,160.6462860107422
157.97378540039062,111.98526763916016,160.58079528808594
158.22390747070312,112.05157470703125,160.69056701660156
158.26280212402344,112.0596694946289,160.6741180419922
158.0720672607422,112.00528717041016,160.62928771972656
158.16510009765625,112.10860443115234,160.66175842285156
158.2718505859375,112.09010314941406,160.66055297851562
158.1077117919922,112.03968048095703,160.595947265625
158.30015563964844,112.08844757080078,160.6625518798828
158.24661254882812,112.0774917602539,160.65530395507812
158.0918426513672,112.03280639648438,160.5727081298828
158.41542053222656,112.05547332763672,160.60719299316406
158.30348205566406,112.03926086425781,160.59445190429688
158.12437438964844,112.03241729736328,160.58778381347656
158.45863342285156,112.06954193115234,160.673828125
158.38844299316406,112.072509765625,160.66799926757812
158.2484588623047,111.99144744873047,160.59555053710938
158.34414672851562,112.04127502441406,160.62193298339844
158.4335479736328,112.06320190429688,160.66171264648438
158.3380889892578,111.98527526855469,160.54110717773438
158.51666259765625,112.08290100097656,160.63442993164062
158.4906768798828,112.0674057006836,160.60018920898438
158.3086395263672,112.01009368896484,160.55645751953125
158.4942169189453,112.1110610961914,160.66958618164062
158.47457885742188,112.08943176269531,160.6763153076172
158.34483337402344,112.01810455322266,160.5714111328125
158.451171875,112.07429504394531,160.65269470214844
158.4171142578125,112.07252502441406,160.6429443359375
158.27609252929688,112.02719116210938,160.60293579101562
158.3343963623047,112.06552124023438,160.67095947265625
158.17123413085938,112.03939819335938,160.6063232421875
158.1835174560547,112.0206069946289,160.61524963378906
158.2827606201172,112.09651947021484,160.69918823242188
158.29856872558594,112.07841491699219,160.6610107421875
158.0681610107422,112.06441497802734,160.6397705078125
158.23025512695312,112.10884094238281,160.71298217773438
158.1553497314453,112.11888885498047,160.707275390625
158.03073120117188,112.04327392578125,160.63623046875
158.2142791748047,112.08552551269531,160.74984741210938
158.1312255859375,112.09046173095703,160.73086547851562
158.0264129638672,112.05814361572266,160.68478393554688
158.05084228515625,112.09691619873047,160.7248992919922
158.0877685546875,112.08324432373047,160.76522827148438
158.0071258544922,112.02960968017578,160.7013397216797
158.12071228027344,112.08248901367188,160.78294372558594
158.1820831298828,112.07534790039062,160.75160217285156
157.97186279296875,112.0555648803711,160.71795654296875
157.9956512451172,112.0632095336914,160.7005615234375
157.9919891357422,112.04357147216797,160.70628356933594
157.94520568847656,112.0724868774414,160.69277954101562
158.08567810058594,112.05650329589844,160.67442321777344
158.04933166503906,112.04041290283203,160.64920043945312
158.20883178710938,112.11115264892578,160.71157836914062
158.16978454589844,112.12892150878906,160.70291137695312
157.9589080810547,112.03889465332031,160.64297485351562
158.14195251464844,112.1016845703125,160.695556640625
158.1725616455078,112.0977783203125,160.69314575195312
157.87820434570312,112.02733612060547,160.6563720703125
158.18966674804688,112.09736633300781,160.73609924316406
158.20521545410156,112.09895324707031,160.73355102539062
158.04063415527344,112.01206970214844,160.641357421875
158.13511657714844,112.04914093017578,160.69424438476562
158.2433624267578,112.05882263183594,160.689697265625
158.0577850341797,111.99984741210938,160.63014221191406
158.2010040283203,112.07173156738281,160.727294921875
158.20640563964844,112.06155395507812,160.7122344970703
157.9749298095703,111.9986343383789,160.65516662597656
158.08502197265625,112.05855560302734,160.7490997314453
158.1192626953125,112.05096435546875,160.73385620117188
157.96913146972656,111.96590423583984,160.65570068359375
158.06924438476562,112.04978942871094,160.76803588867188
157.9720001220703,112.06669616699219,160.7987823486328
157.7483673095703,112.00171661376953,160.71450805664062
157.94650268554688,112.025390625,160.73988342285156
157.96926879882812,111.99444580078125,160.763427734375
157.71597290039062,112.03820037841797,160.74974060058594
158.07168579101562,112.03864288330078,160.77737426757812
157.9315948486328,111.9999008178711,160.7505645751953
157.9103240966797,112.04602813720703,160.76800537109375
157.94454956054688,112.04381561279297,160.77877807617188
157.83993530273438,112.04401397705078,160.77682495117188
157.85186767578125,112.02078247070312,160.78201293945312
158.0162353515625,112.10554504394531,160.85238647460938
158.06617736816406,112.09375762939453,160.84481811523438
157.80886840820312,112.05797576904297,160.76803588867188
158.00042724609375,112.06563568115234,160.82725524902344
157.95420837402344,112.06542205810547,160.83018493652344
157.7002410888672,111.99567413330078,160.75018310546875
158.07485961914062,112.07984924316406,160.82391357421875
157.96701049804688,112.0603256225586,160.82949829101562
157.836669921875,111.98855590820312,160.74949645996094
158.0205535888672,112.04591369628906,160.77684020996094
158.06817626953125,112.031005859375,160.7754364013672
157.7960968017578,111.96769714355469,160.71278381347656
158.04629516601562,112.00411987304688,160.7632293701172
157.97833251953125,112.00801849365234,160.73965454101562
157.80723571777344,111.96440887451172,160.70973205566406
157.9366455078125,111.99343872070312,160.7316131591797
158.00088500976562,111.988525390625,160.73345947265625
157.8761749267578,111.92284393310547,160.642333984375
157.94735717773438,111.97647094726562,160.67214965820312
158.01016235351562,111.97126770019531,160.68572998046875
157.76174926757812,111.9321060180664,160.61119079589844
157.9927978515625,111.98836517333984,160.6839599609375
157.9674072265625,111.96212005615234,160.6551513671875
157.8465576171875,111.90396881103516,160.60733032226562
157.81900024414062,111.96760559082031,160.6734161376953
157.65435791015625,111.91890716552734,160.6533660888672
157.82107543945312,111.97557830810547,160.7013702392578
157.7371368408203,111.9293441772461,160.71975708007812
157.71067810058594,111.9158706665039,160.67210388183594
157.84739685058594,111.94049072265625,160.7089080810547
157.88858032226562,111.97691345214844,160.7141571044922
157.73431396484375,111.90753173828125,160.6697235107422
157.90126037597656,111.95620727539062,160.71795654296875
157.88206481933594,111.95596313476562,160.72157287597656
157.6886749267578,111.90594482421875,160.68934631347656
157.86280822753906,111.98295593261719,160.73431396484375
157.95053100585938,111.96534729003906,160.75534057617188
157.69642639160156,111.8823013305664,160.68663024902344
157.92953491210938,111.98701477050781,160.732666015625
157.91136169433594,111.98731231689453,160.744384765625
157.69239807128906,111.91637420654297,160.67588806152344
157.83071899414062,111.97827911376953,160.7690887451172
157.74708557128906,111.99748992919922,160.774658203125
157.59315490722656,111.9175796508789,160.69338989257812
157.9114532470703,111.9710922241211,160.78451538085938
158.02435302734375,111.97278594970703,160.7462921142578
157.84591674804688,111.88811492919922,160.6744384765625
158.0168914794922,111.92459106445312,160.70814514160156
157.9651336669922,111.94650268554688,160.6866912841797
157.79515075683594,111.86058807373047,160.59036254882812
158.0127716064453,111.93594360351562,160.642333984375
157.85202026367188,111.90147399902344,160.61619567871094
157.88101196289062,111.84872436523438,160.5384979248047
158.0972442626953,111.89130401611328,160.58950805664062
158.0962371826172,111.88849639892578,160.58096313476562
157.830322265625,111.8995132446289,160.56007385253906
158.07289123535156,111.89640808105469,160.5682373046875
158.1396484375,111.90709686279297,160.54348754882812
157.97171020507812,111.92728424072266,160.57728576660156
158.0778350830078,111.96204376220703,160.63539123535156
158.15867614746094,111.97395324707031,160.6640625
157.89385986328125,111.89693450927734,160.58636474609375
158.107421875,111.99198913574219,160.6900634765625
158.05374145507812,111.95906829833984,160.64581298828125
157.9504852294922,111.88526916503906,160.59046936035156
157.9818115234375,111.95230865478516,160.66030883789062
157.9912567138672,111.97722625732422,160.66836547851562
157.73655700683594,111.8994369506836,160.57403564453125
157.9840850830078,112.00289916992188,160.68603515625
158.03224182128906,111.98262786865234,160.66136169433594
157.86288452148438,111.91112518310547,160.6044921875
158.0552215576172,111.9818344116211,160.66635131835938
158.0856170654297,111.99246215820312,160.68186950683594
157.93418884277344,111.91783142089844,160.6159210205078
158.2127227783203,111.95021057128906,160.64797973632812
158.17437744140625,111.94171905517578,160.6298370361328
158.0159912109375,111.88125610351562,160.5865478515625
158.13796997070312,111.93446350097656,160.62625122070312
158.1455841064453,111.95575714111328,160.6603546142578
157.90789794921875,111.89540100097656,160.5526123046875
158.20834350585938,111.95069885253906,160.6404266357422
158.1911163330078,111.95642852783203,160.6210174560547
157.95021057128906,111.90642547607422,160.56472778320312
157.9194793701172,111.88361358642578,160.54000854492188
157.91937255859375,111.86114501953125,160.52029418945312
158.01602172851562,111.89875793457031,160.54977416992188
158.07669067382812,111.91452026367188,160.54888916015625
157.890380859375,111.7978286743164,160.46435546875
158.0746307373047,111.89581298828125,160.51046752929688
158.08132934570312,111.90414428710938,160.51564025878906
157.8798370361328,111.8134994506836,160.47544860839844
158.1285858154297,111.85911560058594,160.50604248046875
158.18971252441406,111.86736297607422,160.50033569335938
158.0244140625,111.8340072631836,160.47483825683594
158.26165771484375,111.9153823852539,160.52969360351562
158.263427734375,111.90110778808594,160.5000762939453
158.08717346191406,111.85040283203125,160.45614624023438
158.32760620117188,111.8977279663086,160.51136779785156
158.22848510742188,111.92345428466797,160.51177978515625
158.04969787597656,111.84548950195312,160.44338989257812
158.1879425048828,111.91336059570312,160.5139923095703
158.18836975097656,111.91511535644531,160.51513671875
157.9912872314453,111.85155487060547,160.48780822753906
158.16058349609375,111.92786407470703,160.51229858398438
158.15072631835938,111.93798065185547,160.54539489746094
158.0026092529297,111.86104583740234,160.46524047851562
158.17808532714844,111.9264144897461,160.5215301513672
158.1759796142578,111.87972259521484,160.53079223632812
158.06663513183594,111.90898895263672,160.52886962890625
158.22142028808594,111.9975357055664,160.5907440185547
158.27169799804688,112.0020751953125,160.5858917236328
158.08668518066406,111.9112777709961,160.50723266601562
158.2734832763672,112.01609802246094,160.5967254638672
158.1829833984375,112.00225830078125,160.59213256835938
158.03651428222656,111.94806671142578,160.5127410888672
158.16233825683594,111.96267700195312,160.55926513671875
158.0796661376953,111.9736328125,160.55142211914062
157.9811248779297,111.9253921508789,160.4863739013672
158.21925354003906,111.95625305175781,160.55117797851562
158.10574340820312,111.93698120117188,160.53675842285156
157.9724578857422,111.88912963867188,160.47653198242188
158.09461975097656,111.92632293701172,160.52584838867188
158.16458129882812,111.93067932128906,160.52525329589844
158.0289306640625,111.84281158447266,160.44798278808594
158.12355041503906,111.90377044677734,160.5296173095703
158.17979431152344,111.89569091796875,160.5186004638672
157.92002868652344,111.84102630615234,160.42703247070312
158.10572814941406,111.9089126586914,160.4696502685547
158.13699340820312,111.87940979003906,160.44979858398438
158.04302978515625,111.84095764160156,160.370361328125
158.21067810058594,111.88807678222656,160.4263916015625
158.12110900878906,111.88934326171875,160.4225616455078
157.99951171875,111.83078002929688,160.3677520751953
158.18588256835938,111.9085922241211,160.44630432128906
158.3092498779297,111.9101333618164,160.45260620117188
158.07188415527344,111.86620330810547,160.3966064453125
158.3566131591797,111.9148178100586,160.47897338867188
158.27650451660156,111.90232849121094,160.48968505859375
158.07896423339844,111.85931396484375,160.4478759765625
158.2982940673828,111.89070129394531,160.49090576171875
158.1443328857422,111.92134094238281,160.5160675048828
158.11773681640625,111.88583374023438,160.4757080078125
158.08578491210938,111.89257049560547,160.50921630859375
157.99378967285156,111.85462951660156,160.47210693359375
158.1408233642578,111.98812103271484,160.56275939941406
158.1762237548828,111.93305206298828,160.52435302734375
158.0922393798828,111.9186019897461,160.52862548828125
158.20245361328125,112.00415802001953,160.58535766601562
158.21949768066406,112.03582000732422,160.5804901123047
158.0291748046875,111.91893768310547,160.55088806152344
158.25177001953125,111.97762298583984,160.6016845703125
158.25437927246094,111.9654769897461,160.58460998535156
158.04737854003906,111.9324951171875,160.5799102783203
158.1774139404297,112.02667999267578,160.6173553466797
158.13014221191406,112.01934814453125,160.6200714111328
157.9506072998047,111.92736053466797,160.57972717285156
157.97596740722656,112.03572845458984,160.6456756591797
157.9488067626953,112.02780151367188,160.66806030273438
157.76766967773438,112.01273345947266,160.62496948242188
157.7938995361328,112.05062103271484,160.69541931152344
157.9575958251953,112.0308837890625,160.6512908935547
157.7347869873047,111.96312713623047,160.58047485351562
157.91746520996094,112.0337905883789,160.6202392578125
157.84304809570312,112.03180694580078,160.57186889648438
157.80126953125,111.95565795898438,160.49673461914062
158.1826934814453,111.99229431152344,160.53407287597656
158.10789489746094,111.9830551147461,160.5149383544922
158.0307159423828,111.90289306640625,160.4483184814453
158.29046630859375,111.9549560546875,160.46669006347656
158.38507080078125,111.93629455566406,160.44198608398438
158.17213439941406,111.96402740478516,160.4592742919922
158.3816680908203,111.92473602294922,160.45887756347656
158.41162109375,111.96855163574219,160.46270751953125
158.21632385253906,111.95306396484375,160.4749298095703
158.42059326171875,112.05400085449219,160.588623046875
158.37376403808594,112.02000427246094,160.54273986816406
158.18223571777344,111.9543685913086,160.52883911132812
158.29078674316406,112.04446411132812,160.5875244140625
158.27154541015625,112.0499267578125,160.5699005126953
158.0720977783203,111.95728302001953,160.5218963623047
158.3414764404297,112.0548095703125,160.6217803955078
158.24810791015625,112.04158782958984,160.60037231445312
158.03858947753906,111.9851303100586,160.55516052246094
158.2649688720703,112.0459213256836,160.6526336669922
158.29434204101562,112.05976104736328,160.6603240966797
158.18077087402344,111.98944091796875,160.59019470214844
158.4464111328125,112.0992660522461,160.69537353515625
158.33108520507812,112.0713882446289,160.68484497070312
158.15682983398438,112.01172637939453,160.629150390625
158.26922607421875,112.05558776855469,160.6748504638672
158.27938842773438,112.05807495117188,160.68394470214844
157.98216247558594,111.97280883789062,160.61317443847656
158.16888427734375,112.04443359375,160.69329833984375
158.08193969726562,112.0612564086914,160.66664123535156
157.90902709960938,112.00939178466797,160.63720703125
158.12286376953125,112.04886627197266,160.6747283935547
158.02810668945312,112.05187225341797,160.69656372070312
157.84654235839844,111.99372100830078,160.6171875
158.1289520263672,112.02796936035156,160.67173767089844
158.1241455078125,112.03526306152344,160.64279174804688
157.93394470214844,111.98583984375,160.6031951904297
157.88473510742188,112.00434875488281,160.63900756835938
157.84390258789062,111.9555892944336,160.58551025390625
157.9827117919922,111.99429321289062,160.6155242919922
157.96884155273438,111.99414825439453,160.61631774902344
157.8203887939453,111.95391082763672,160.55628967285156
158.00717163085938,111.99779510498047,160.60008239746094
158.15127563476562,112.03258514404297,160.60462951660156
157.84503173828125,111.94898986816406,160.54595947265625
158.0687713623047,112.0148696899414,160.5984344482422
158.09617614746094,112.015380859375,160.6005401611328
157.8865966796875,111.96336364746094,160.54566955566406
158.12155151367188,112.03829193115234,160.619873046875
158.0761260986328,112.0152359008789,160.63697814941406
157.91976928710938,111.94017791748047,160.57861328125
158.03672790527344,112.04279327392578,160.66375732421875
158.04043579101562,112.04115295410156,160.6888427734375
157.7820587158203,111.95532989501953,160.60877990722656
157.9959716796875,112.08879852294922,160.75674438476562
157.91680908203125,112.05883026123047,160.71812438964844
157.6577911376953,111.98509979248047,160.6881561279297
157.7489776611328,112.08121490478516,160.7591552734375
157.71722412109375,112.08389282226562,160.7565460205078
157.55198669433594,111.99959564208984,160.6694793701172
157.87490844726562,112.05754852294922,160.7610321044922
157.74046325683594,112.08607482910156,160.7758026123047
157.60586547851562,112.01774597167969,160.71871948242188
157.82577514648438,112.05912780761719,160.774658203125
157.8459014892578,112.04881286621094,160.80517578125
157.62965393066406,111.99581146240234,160.7363739013672
157.89930725097656,112.06075286865234,160.82293701171875
157.7982940673828,112.02446746826172,160.77099609375
157.71473693847656,111.97757720947266,160.76438903808594
157.8599853515625,112.02722930908203,160.78097534179688
157.8923797607422,112.04470825195312,160.7952117919922
157.70840454101562,112.02450561523438,160.78553771972656
157.98028564453125,112.10132598876953,160.83567810058594
158.03948974609375,112.0833740234375,160.84486389160156
157.7672119140625,112.00822448730469,160.76853942871094
158.02793884277344,112.05818176269531,160.80055236816406
157.9619903564453,112.052734375,160.7952423095703
157.8199920654297,111.98466491699219,160.6924285888672
157.97918701171875,112.08976745605469,160.79229736328125
158.0146026611328,112.03254699707031,160.7812042236328
157.8053741455078,111.99809265136719,160.70306396484375
157.98548889160156,112.06172943115234,160.77987670898438
158.00306701660156,112.0471420288086,160.75267028808594
157.8297576904297,111.98332977294922,160.6533966064453
158.03598022460938,112.07717895507812,160.730712890625
158.0741729736328,112.05726623535156,160.74615478515625
157.85423278808594,112.00218963623047,160.6997528076172
158.0991668701172,112.04389953613281,160.7264862060547
158.0246124267578,112.03123474121094,160.72723388671875
157.9091339111328,111.99259185791016,160.68240356445312
158.0278778076172,112.05404663085938,160.74810791015625
157.93873596191406,112.0477066040039,160.724609375
157.8219451904297,112.00374603271484,160.6920928955078
157.84307861328125,112.06883239746094,160.7505645751953
158.0308380126953,112.06372833251953,160.7680206298828
157.68701171875,112.00462341308594,160.6921844482422
157.79293823242188,112.06015014648438,160.75439453125
157.66351318359375,112.02242279052734,160.7317352294922
157.9174346923828,112.06967163085938,160.79608154296875
157.79759216308594,112.0389404296875,160.7807159423828
157.7145538330078,112.04153442382812,160.73153686523438
157.9102325439453,112.09185791015625,160.7567596435547
157.97523498535156,112.11534118652344,160.7957763671875
157.764892578125,112.02788543701172,160.72254943847656
158.039306640625,112.09458923339844,160.7969512939453
158.03829956054688,112.09361267089844,160.7833709716797
157.8946990966797,112.02366638183594,160.7427215576172
158.0501251220703,112.08967590332031,160.80313110351562
158.04058837890625,112.097412109375,160.78529357910156
157.8257293701172,111.99256134033203,160.73219299316406
158.02200317382812,112.06907653808594,160.80487060546875
158.0106658935547,112.07257080078125,160.79367065429688
157.7716064453125,111.97465515136719,160.74334716796875
158.00216674804688,112.04015350341797,160.80654907226562
157.9486846923828,112.05104064941406,160.8227996826172
157.7557373046875,111.95991516113281,160.72010803222656
158.03912353515625,112.0445327758789,160.7898712158203
158.1282196044922,112.02739715576172,160.80392456054688
157.97486877441406,111.94963836669922,160.69981384277344
157.9680633544922,112.02130889892578,160.75103759765625
158.1414337158203,112.01012420654297,160.74192810058594
157.9962615966797,111.94862365722656,160.65240478515625
158.22219848632812,112.02633666992188,160.70687866210938
158.04010009765625,111.97676849365234,160.65512084960938
157.9505615234375,111.99788665771484,160.68646240234375
158.06900024414062,112.00984191894531,160.68894958496094
158.02923583984375,112.02664947509766,160.7240447998047
157.90638732910156,111.99699401855469,160.68017578125
158.12445068359375,112.10835266113281,160.77792358398438
158.08648681640625,112.09780883789062,160.77317810058594
157.9580078125,112.02437591552734,160.68572998046875
158.11819458007812,112.07548522949219,160.77816772460938
158.07156372070312,112.08155822753906,160.74395751953125
157.89488220214844,112.03169250488281,160.6951904296875
158.09295654296875,112.08906555175781,160.7751007080078
158.0645751953125,112.09065246582031,160.77284240722656
157.79393005371094,112.06936645507812,160.72451782226562
158.03431701660156,112.10427856445312,160.742431640625
158.00192260742188,112.1066665649414,160.77676391601562
157.75942993164062,112.04601287841797,160.68609619140625
157.99842834472656,112.11463928222656,160.75843811035156
157.9730682373047,112.08671569824219,160.7421112060547
157.8860321044922,112.03162384033203,160.70523071289062
158.02320861816406,112.09111022949219,160.75387573242188
158.01116943359375,112.07638549804688,160.7602996826172
157.80322265625,112.03557586669922,160.7005615234375
158.0345916748047,112.08541870117188,160.7430877685547
158.02239990234375,112.07233428955078,160.75912475585938
157.82183837890625,112.04812622070312,160.7028350830078
158.0695343017578,112.1045913696289,160.74276733398438
158.0109405517578,112.09647369384766,160.76361083984375
157.7659149169922,112.03125,160.68832397460938
157.92845153808594,112.06883239746094,160.74105834960938
157.91085815429688,112.03287506103516,160.7385711669922
157.76878356933594,111.9945068359375,160.70126342773438
157.78404235839844,111.99239349365234,160.68687438964844
157.79354858398438,111.96215057373047,160.6565704345703
157.8681182861328,112.01801300048828,160.69642639160156
157.8083953857422,112.00829315185547,160.66146850585938
157.6494140625,111.98130798339844,160.6124267578125
157.95335388183594,112.0716781616211,160.66378784179688
158.0053253173828,112.08275604248047,160.66563415527344
157.81948852539062,111.9622573852539,160.61268615722656
157.98681640625,112.03907012939453,160.6576690673828
157.96456909179688,112.04108428955078,160.6495819091797
157.8763427734375,111.95552062988281,160.6170654296875
158.14312744140625,112.06946563720703,160.70419311523438
158.1185302734375,112.05007934570312,160.68597412109375
157.80372619628906,111.98441314697266,160.64927673339844
157.982666015625,112.0740737915039,160.6924591064453
158.08226013183594,112.07892608642578,160.70025634765625
157.91871643066406,111.99541473388672,160.64111328125
158.03115844726562,112.10733795166016,160.72360229492188
157.97906494140625,112.09603118896484,160.74172973632812
157.78895568847656,112.0434799194336,160.6978302001953
157.89642333984375,112.07398986816406,160.77749633789062
157.83470153808594,112.1041488647461,160.771728515625
157.86544799804688,112.02845764160156,160.7205047607422
158.01097106933594,112.09532165527344,160.79629516601562
157.89871215820312,112.04950714111328,160.76556396484375
157.8206024169922,112.07648468017578,160.78225708007812
158.05221557617188,112.07710266113281,160.8309326171875
158.0107879638672,112.0829849243164,160.83102416992188
157.75775146484375,112.03739929199219,160.78875732421875
157.95558166503906,112.09920501708984,160.84918212890625
157.94993591308594,112.09223175048828,160.85874938964844
157.89212036132812,112.03145599365234,160.77545166015625
157.98313903808594,112.0705795288086,160.79824829101562
157.93588256835938,112.06694793701172,160.80691528320312
157.80667114257812,111.97926330566406,160.743896484375
157.93246459960938,112.04849243164062,160.7667236328125
157.73658752441406,112.06206512451172,160.7734832763672
157.55630493164062,112.0218734741211,160.71873474121094
157.7840118408203,112.11347198486328,160.73809814453125
157.73190307617188,112.09925842285156,160.76553344726562
157.65435791015625,112.00611877441406,160.6366424560547
157.89529418945312,112.10116577148438,160.72503662109375
157.85447692871094,112.09444427490234,160.6842803955078
157.78170776367188,112.01394653320312,160.6208038330078
157.98020935058594,112.08155059814453,160.69912719726562
158.0821990966797,112.08403778076172,160.724853515625
157.80313110351562,112.04080200195312,160.63345336914062
158.0950469970703,112.11302185058594,160.73899841308594
157.9374542236328,112.0987319946289,160.7107391357422
157.8655242919922,112.0214614868164,160.66366577148438
157.97283935546875,112.10664367675781,160.7292938232422
157.99749755859375,112.1069564819336,160.73463439941406
157.78558349609375,112.04186248779297,160.64332580566406
158.00430297851562,112.0827407836914,160.72311401367188
157.8820037841797,112.08343505859375,160.73329162597656
157.8160858154297,112.03584289550781,160.6895751953125
157.91732788085938,112.07633972167969,160.71844482421875
157.96067810058594,112.08175659179688,160.74688720703125
157.77606201171875,112.06414794921875,160.68089294433594
157.94256591796875,112.07478332519531,160.69174194335938
157.82559204101562,111.99217987060547,160.6597137451172
157.95370483398438,112.0613021850586,160.7325897216797
157.94830322265625,112.05352783203125,160.71905517578125
157.88580322265625,112.00344848632812,160.6760711669922
158.03016662597656,112.05875396728516,160.69949340820312
158.0443878173828,112.10515594482422,160.7333221435547
157.86489868164062,112.02379608154297,160.66485595703125
158.05947875976562,112.11460876464844,160.70166015625
158.05059814453125,112.09386444091797,160.70367431640625
157.88648986816406,112.04127502441406,160.67245483398438
158.1627960205078,112.08169555664062,160.70323181152344
158.1387939453125,112.09423065185547,160.7066650390625
157.88418579101562,111.98878479003906,160.64608764648438
158.01402282714844,112.04998016357422,160.71221923828125
157.99696350097656,112.05773162841797,160.693359375
157.9371795654297,112.0003433227539,160.6463165283203
158.02516174316406,112.02549743652344,160.66439819335938
158.12802124023438,112.01744842529297,160.6743927001953
157.9302215576172,111.93255615234375,160.5857391357422
158.02142333984375,111.9874496459961,160.63104248046875
158.0419921875,112.00839233398438,160.6253662109375
157.92933654785156,111.95230102539062,160.54408264160156
158.0459442138672,112.01387023925781,160.65066528320312
158.0209503173828,111.98686981201172,160.6350555419922
157.76345825195312,111.92606353759766,160.54835510253906
157.96066284179688,112.02275848388672,160.64381408691406
158.05950927734375,111.98831176757812,160.65142822265625
157.83779907226562,111.95775604248047,160.57484436035156
157.9450225830078,111.9818344116211,160.63424682617188
157.94448852539062,112.01696014404297,160.6698760986328
157.80209350585938,112.05054473876953,160.6739044189453
157.8925323486328,112.05506896972656,160.7171630859375
157.93524169921875,111.99700164794922,160.68197631835938
157.80142211914062,112.01609802246094,160.68045043945312
157.8830108642578,112.01763153076172,160.70181274414062
157.9052734375,112.01567077636719,160.68495178222656
157.77825927734375,112.01399993896484,160.67922973632812
157.9296875,112.02287292480469,160.6863555908203
157.93936157226562,111.98548889160156,160.685302734375
157.7154541015625,111.99576568603516,160.71929931640625
157.93911743164062,112.0390853881836,160.737060546875
157.9095916748047,112.05224609375,160.75546264648438
157.80441284179688,111.9786148071289,160.67034912109375
158.00311279296875,112.05624389648438,160.75021362304688
157.97373962402344,112.0406494140625,160.74850463867188
157.7849884033203,111.97891998291016,160.6956024169922
157.8489227294922,112.04690551757812,160.75082397460938
157.9084014892578,112.05315399169922,160.77565002441406
157.69203186035156,111.9605712890625,160.68109130859375
157.98805236816406,112.03524017333984,160.72344970703125
157.92913818359375,112.01788330078125,160.7125244140625
157.7689208984375,111.96391296386719,160.66049194335938
157.9890594482422,111.98577117919922,160.67221069335938
157.93536376953125,111.99037170410156,160.67807006835938
157.7644500732422,111.92704010009766,160.62432861328125
157.89895629882812,111.96969604492188,160.65736389160156
157.94525146484375,111.94969940185547,160.6255645751953
157.81491088867188,111.8917236328125,160.5611114501953
157.7499237060547,111.91203308105469,160.57571411132812
157.66908264160156,111.8786849975586,160.52613830566406
157.81541442871094,111.92154693603516,160.58143615722656
157.8186492919922,111.92996978759766,160.57855224609375
157.6427459716797,111.87483215332031,160.53604125976562
157.80650329589844,111.92081451416016,160.56898498535156
157.8302001953125,111.93746948242188,160.57537841796875
157.64752197265625,111.86074829101562,160.55189514160156
157.84066772460938,111.95543670654297,160.6018829345703
157.7903594970703,111.9671859741211,160.60610961914062
157.47811889648438,111.8847885131836,160.5413360595703
157.75892639160156,111.98976135253906,160.6497802734375
157.77688598632812,111.97970581054688,160.6521453857422
157.60450744628906,111.89358520507812,160.5845947265625
157.89588928222656,111.95957946777344,160.66925048828125
157.88970947265625,111.96484375,160.65634155273438
157.58509826660156,111.8646011352539,160.58639526367188
157.78466796875,111.9666519165039,160.65570068359375
157.7310333251953,111.9514389038086,160.64553833007812
157.62594604492188,111.8727035522461,160.59329223632812
157.7666015625,111.93673706054688,160.63446044921875
157.87429809570312,111.92555236816406,160.637451171875
157.66732788085938,111.84217071533203,160.53399658203125
157.80116271972656,111.94956970214844,160.60430908203125
157.8465576171875,111.94381713867188,160.61734008789062
157.65139770507812,111.85777282714844,160.55174255371094
157.8375244140625,111.8851089477539,160.59820556640625
157.7958984375,111.89974975585938,160.58316040039062
157.66152954101562,111.90443420410156,160.61996459960938
157.86831665039062,111.89454650878906,160.60189819335938
157.8271942138672,111.85546875,160.583740234375
157.69741821289062,111.85896301269531,160.5718231201172
157.9348602294922,111.90568542480469,160.6143341064453
157.96424865722656,111.91475677490234,160.633056640625
157.77854919433594,111.82209777832031,160.52781677246094
157.88217163085938,111.90770721435547,160.5786590576172
157.94577026367188,111.91608428955078,160.58245849609375
157.86366271972656,111.82171630859375,160.51470947265625
157.98338317871094,111.87690734863281,160.5722198486328
157.88494873046875,111.90287780761719,160.53529357910156
157.7439727783203,111.82878112792969,160.49423217773438
157.89822387695312,111.913330078125,160.57054138183594
157.79086303710938,111.88192749023438,160.53262329101562
157.54403686523438,111.8588638305664,160.47174072265625
157.82240295410156,111.9062728881836,160.53656005859375
157.76931762695312,111.9091796875,160.5702667236328
157.5367889404297,111.82624053955078,160.48907470703125
157.71820068359375,111.91047668457031,160.5736083984375
157.78109741210938,111.9002685546875,160.59153747558594
157.57054138183594,111.84178161621094,160.49586486816406
157.71572875976562,111.88640594482422,160.55609130859375
157.5687255859375,111.90115356445312,160.5458221435547
157.4785919189453,111.85586547851562,160.5124969482422
157.7266082763672,111.92009735107422,160.5668182373047
157.73257446289062,111.8810806274414,160.57489013671875
157.5976104736328,111.85346984863281,160.51296997070312
157.78480529785156,111.90096282958984,160.5682830810547
157.77333068847656,111.91228485107422,160.56776428222656
157.6749267578125,111.82820129394531,160.49217224121094
157.6644287109375,111.87680053710938,160.51429748535156
157.69183349609375,111.85852813720703,160.4659881591797
157.7420196533203,111.91681671142578,160.5070037841797
157.77871704101562,111.87612915039062,160.4928436279297
157.62413024902344,111.81709289550781,160.47097778320312
157.80455017089844,111.86734771728516,160.47921752929688
157.84829711914062,111.87195587158203,160.5011444091797
157.71673583984375,111.82349395751953,160.4681854248047
157.8603057861328,111.9016342163086,160.49346923828125
157.89120483398438,111.8962173461914,160.50003051757812
157.72515869140625,111.83340454101562,160.4552001953125
157.94601440429688,111.90668487548828,160.4804229736328
158.0347137451172,111.91852569580078,160.48936462402344
157.85426330566406,111.84505462646484,160.42747497558594
158.04611206054688,111.95074462890625,160.4839630126953
157.97425842285156,111.9439926147461,160.48960876464844
157.85169982910156,111.85986328125,160.40406799316406
158.02435302734375,111.91017150878906,160.453857421875
158.0684814453125,111.95538330078125,160.48422241210938
157.88973999023438,111.8523941040039,160.40574645996094
158.02659606933594,111.93279266357422,160.52301025390625
157.96319580078125,111.9201889038086,160.51681518554688
157.88372802734375,111.89141082763672,160.4603271484375
158.04393005371094,111.95354461669922,160.51686096191406
157.9486541748047,111.98370361328125,160.54238891601562
157.75599670410156,111.90394592285156,160.4567413330078
157.940185546875,111.97542572021484,160.54356384277344
157.85081481933594,111.95663452148438,160.54734802246094
157.7847442626953,111.89740753173828,160.5184783935547
157.95774841308594,111.95662689208984,160.557373046875
158.07418823242188,111.98846435546875,160.5716094970703
157.7852325439453,111.95740509033203,160.52276611328125
157.91354370117188,111.97599029541016,160.55453491210938
157.92172241210938,112.01016998291016,160.538330078125
157.85302734375,111.98135375976562,160.5513458251953
157.8983917236328,111.96170043945312,160.5464630126953
157.9496307373047,112.0006332397461,160.57554626464844
157.88819885253906,111.99856567382812,160.5634002685547
158.0794677734375,112.0300521850586,160.63330078125
157.9623260498047,112.0021743774414,160.6153106689453
157.64938354492188,111.93106842041016,160.5095672607422
157.85025024414062,112.00186157226562,160.563720703125
157.92979431152344,112.00580596923828,160.56063842773438
157.65542602539062,111.92813873291016,160.48114013671875
157.92724609375,111.99303436279297,160.56182861328125
157.85047912597656,111.98184967041016,160.55062866210938
157.7877655029297,111.92903137207031,160.48080444335938
157.945068359375,111.99341583251953,160.51419067382812
157.98773193359375,111.99974822998047,160.5048370361328
157.83706665039062,111.93281555175781,160.41261291503906
158.1260223388672,112.01206970214844,160.49951171875
158.07846069335938,111.99444580078125,160.4820098876953
157.95843505859375,111.95549011230469,160.42434692382812
158.0125274658203,112.0178451538086,160.4902801513672
158.0629119873047,112.02113342285156,160.49510192871094
157.79193115234375,111.95536804199219,160.41470336914062
157.99252319335938,112.01954650878906,160.51654052734375
157.83946228027344,112.02323150634766,160.53692626953125
157.7763214111328,111.97016143798828,160.49761962890625
157.767578125,112.00244903564453,160.53013610839844
157.72637939453125,111.99777221679688,160.53781127929688
157.85491943359375,112.03079223632812,160.59054565429688
157.84996032714844,112.03147888183594,160.6123046875
157.6233367919922,111.96715545654297,160.56024169921875
157.7563934326172,112.03211975097656,160.6045684814453
157.76202392578125,112.02091217041016,160.61083984375
157.61343383789062,111.97534942626953,160.55838012695312
157.82107543945312,112.02999114990234,160.60635375976562
157.71450805664062,112.03294372558594,160.60675048828125
157.51292419433594,112.01055145263672,160.58506774902344
157.83016967773438,112.1035385131836,160.6710662841797
157.72183227539062,112.0816650390625,160.6461181640625
157.5277099609375,112.02285766601562,160.58468627929688
157.7889404296875,112.08392333984375,160.63865661621094
157.76963806152344,112.06536102294922,160.6555938720703
157.5958709716797,112.01332092285156,160.6020965576172
157.80162048339844,112.09134674072266,160.6703338623047
157.76873779296875,112.06684112548828,160.65740966796875
157.5465087890625,111.99346160888672,160.59762573242188
157.72210693359375,112.07612609863281,160.62847900390625
157.71029663085938,112.0345230102539,160.62904357910156
157.59205627441406,111.95132446289062,160.590087890625
157.88308715820312,112.0261459350586,160.62799072265625
157.81243896484375,112.02056121826172,160.60269165039062
157.75518798828125,112.0259017944336,160.6022491455078
157.91351318359375,112.0185546875,160.60997009277344
157.92225646972656,112.05203247070312,160.59555053710938
157.5649871826172,112.02291870117188,160.58929443359375
157.82382202148438,112.05204772949219,160.6116180419922
157.77374267578125,112.06696319580078,160.60317993164062
157.7079315185547,112.06114959716797,160.5902862548828
157.87925720214844,112.13875579833984,160.68112182617188
157.80067443847656,112.10028076171875,160.65435791015625
157.72178649902344,112.05879974365234,160.58815002441406
157.76095581054688,112.16566467285156,160.70985412597656
157.83497619628906,112.15657806396484,160.69776916503906
157.62725830078125,112.0946273803711,160.64952087402344
157.7558135986328,112.16340637207031,160.73162841796875
157.7845458984375,112.15559387207031,160.74649047851562
157.54043579101562,112.05889892578125,160.65359497070312
157.81976318359375,112.1484603881836,160.78973388671875
157.7886199951172,112.1403579711914,160.78036499023438
157.564697265625,112.06449127197266,160.68203735351562
157.7321319580078,112.08936309814453,160.7584686279297
157.59857177734375,112.09751892089844,160.74481201171875
157.5604248046875,112.05489349365234,160.70846557617188
157.71673583984375,112.12303924560547,160.7816162109375
157.7006378173828,112.10663604736328,160.7741241455078
157.49734497070312,112.04292297363281,160.75537109375
157.73280334472656,112.11199188232422,160.7997589111328
157.63511657714844,112.1115493774414,160.7828369140625
157.55926513671875,112.03532409667969,160.70033264160156
157.8303680419922,112.11988067626953,160.79489135742188
157.83302307128906,112.09889221191406,160.79693603515625
157.59373474121094,112.08377838134766,160.70904541015625
157.7259063720703,112.11180114746094,160.72885131835938
157.72120666503906,112.10391998291016,160.7358856201172
157.54306030273438,112.04627990722656,160.6641845703125
157.59356689453125,112.09111022949219,160.70130920410156
157.59262084960938,112.02237701416016,160.6631622314453
157.75946044921875,112.07967376708984,160.7237091064453
157.67242431640625,112.04219055175781,160.69667053222656
157.52284240722656,112.03801727294922,160.6630401611328
157.67898559570312,112.0709457397461,160.67962646484375
157.71737670898438,112.06379699707031,160.6893768310547
157.62289428710938,112.02328491210938,160.65721130371094
157.75357055664062,112.0497817993164,160.68783569335938
157.79144287109375,112.06163024902344,160.68028259277344
157.69114685058594,112.01131439208984,160.6553192138672
157.88185119628906,112.08446502685547,160.7232666015625
157.9254913330078,112.08380889892578,160.719482421875
157.70008850097656,111.91883087158203,160.59494018554688
157.8152618408203,112.03604888916016,160.6891632080078
157.84364318847656,111.98539733886719,160.66831970214844
157.62857055664062,111.96343994140625,160.6564178466797
157.730224609375,112.0363998413086,160.7045440673828
157.79827880859375,112.04156494140625,160.73570251464844
157.6136016845703,111.97563934326172,160.66632080078125
157.760009765625,112.04993438720703,160.7738800048828
157.65301513671875,112.0494155883789,160.7520751953125
157.60118103027344,112.02831268310547,160.66563415527344
157.6398162841797,112.07611846923828,160.743408203125
157.73130798339844,112.08493041992188,160.73776245117188
157.57867431640625,111.98188781738281,160.68885803222656
157.73463439941406,112.06675720214844,160.7412109375
157.76815795898438,112.0505142211914,160.74835205078125
157.5243377685547,112.09611511230469,160.7838592529297
157.7240753173828,112.03778839111328,160.76144409179688
157.66456604003906,112.02809143066406,160.77305603027344
157.56150817871094,112.0361328125,160.7991180419922
157.85720825195312,112.09811401367188,160.85336303710938
157.8172149658203,112.06782531738281,160.8231658935547
157.57676696777344,111.99931335449219,160.76499938964844
157.81381225585938,112.05789184570312,160.83694458007812
157.73455810546875,112.06236267089844,160.8162384033203
157.5533905029297,111.99037170410156,160.7309112548828
157.84962463378906,112.04304504394531,160.79612731933594
157.7526397705078,112.03961181640625,160.78970336914062
157.6497039794922,111.95471954345703,160.7361297607422
157.8218536376953,112.02266693115234,160.7780303955078
157.7476043701172,111.98007202148438,160.76023864746094
157.6444549560547,111.94991302490234,160.70057678222656
157.8762664794922,112.03761291503906,160.75244140625
157.8993377685547,111.99414825439453,160.7328643798828
157.73391723632812,111.96455383300781,160.67710876464844
157.87582397460938,112.01909637451172,160.7236785888672
157.87579345703125,112.0294418334961,160.7139434814453
157.62948608398438,111.95693969726562,160.6613311767578
157.83901977539062,112.02716827392578,160.74610900878906
157.8040771484375,112.03861999511719,160.74510192871094
157.6210174560547,112.01737976074219,160.68585205078125
157.83409118652344,112.0126953125,160.74864196777344
157.71510314941406,112.00765991210938,160.7653045654297
157.5973663330078,111.96199798583984,160.71209716796875
157.83226013183594,112.01810455322266,160.79466247558594
157.76719665527344,112.02830505371094,160.78167724609375
157.5213165283203,112.001708984375,160.75035095214844
157.61776733398438,112.03596496582031,160.76780700683594
157.5387725830078,111.97491455078125,160.7426300048828
157.66932678222656,112.01739501953125,160.77024841308594
157.69056701660156,112.02054595947266,160.79713439941406
157.60336303710938,111.98761749267578,160.72158813476562
157.7757568359375,112.05955505371094,160.77972412109375
157.76417541503906,112.07122802734375,160.78561401367188
157.56776428222656,111.9911117553711,160.73257446289062
157.7756805419922,112.06690979003906,160.83140563964844
157.77406311035156,112.06600189208984,160.81692504882812
157.59768676757812,112.00421142578125,160.7767333984375
157.7875213623047,112.09381103515625,160.8625030517578
157.76998901367188,112.09135437011719,160.8654327392578
157.5284423828125,112.0142822265625,160.82240295410156
157.6876678466797,112.00967407226562,160.82119750976562
157.80194091796875,112.05057525634766,160.85458374023438
157.6681365966797,111.97257995605469,160.74954223632812
157.87025451660156,112.02481842041016,160.78939819335938
157.77944946289062,112.0098876953125,160.79066467285156
157.83731079101562,111.9544906616211,160.7266082763672
157.88894653320312,112.01128387451172,160.7333526611328
157.95010375976562,112.02584838867188,160.7508544921875
157.67825317382812,111.92782592773438,160.63328552246094
157.93063354492188,111.95068359375,160.69627380371094
157.88035583496094,111.9755859375,160.6876678466797
157.80262756347656,111.98648834228516,160.7115478515625
157.96554565429688,111.97137451171875,160.6822052001953
157.99049377441406,111.95474243164062,160.6626434326172
157.91197204589844,111.95726776123047,160.69427490234375
157.97695922851562,112.05147552490234,160.75669860839844
158.01585388183594,112.03886413574219,160.7206573486328
157.87774658203125,111.99078369140625,160.68702697753906
157.9646453857422,112.04444885253906,160.7326202392578
157.96177673339844,112.05665588378906,160.76214599609375
157.84645080566406,111.97859954833984,160.67662048339844
157.94503784179688,112.06859588623047,160.7497100830078
157.98043823242188,112.06763458251953,160.7442169189453
157.78128051757812,112.03113555908203,160.6982421875
157.9951629638672,112.06597900390625,160.7534942626953
157.85110473632812,112.0540542602539,160.7222137451172
157.7438201904297,111.9775161743164,160.6824951171875
158.07461547851562,112.04888916015625,160.7535400390625
157.9302520751953,112.0217514038086,160.7367401123047
157.75697326660156,111.997314453125,160.70510864257812
157.88214111328125,112.04556274414062,160.73777770996094
157.9560546875,112.04878234863281,160.75221252441406
157.70814514160156,111.95286560058594,160.6815643310547
157.8394317626953,112.02759552001953,160.75497436523438
157.85540771484375,112.01224517822266,160.7681884765625
157.79319763183594,111.95833587646484,160.68678283691406
157.90396118164062,112.0115966796875,160.749267578125
158.00462341308594,112.0216064453125,160.7268524169922
157.84584045410156,111.96223449707031,160.666259765625
158.09544372558594,111.99048614501953,160.72732543945312
158.03958129882812,111.98165130615234,160.7006378173828
157.84951782226562,111.97491455078125,160.65118408203125
158.0520782470703,111.9914779663086,160.68199157714844
158.02687072753906,112.01422119140625,160.65939331054688
157.80332946777344,111.93950653076172,160.58831787109375
157.81057739257812,111.96344757080078,160.5989227294922
157.93890380859375,111.9325942993164,160.55319213867188
157.97059631347656,111.98344421386719,160.61854553222656
157.9690704345703,111.94635772705078,160.58164978027344
157.98907470703125,111.95146179199219,160.51986694335938
158.17909240722656,112.00810241699219,160.5797882080078
158.14376831054688,112.0334243774414,160.58035278320312
157.97157287597656,111.95690155029297,160.53158569335938
158.11416625976562,112.02130126953125,160.58529663085938
158.14736938476562,112.0099868774414,160.5907745361328
157.93174743652344,111.98839569091797,160.567138671875
158.18470764160156,112.04285430908203,160.63954162597656
158.13278198242188,112.04087829589844,160.64688110351562
157.8833770751953,111.98076629638672,160.58740234375
158.00238037109375,112.05718231201172,160.6679229736328
157.9423370361328,112.03071594238281,160.69107055664062
157.83883666992188,112.00678253173828,160.64230346679688
158.08274841308594,112.07220458984375,160.71585083007812
157.9931182861328,112.04813385009766,160.68482971191406
157.837890625,112.00016784667969,160.6324005126953
158.0334930419922,112.08780670166016,160.72857666015625
158.0253448486328,112.08344268798828,160.73223876953125
157.84376525878906,112.05227661132812,160.65640258789062
157.92373657226562,112.07005310058594,160.68899536132812
157.6556396484375,112.12690734863281,160.73985290527344
157.60301208496094,112.10154724121094,160.74713134765625
157.69471740722656,112.10392761230469,160.72573852539062
157.8566131591797,112.0924301147461,160.72366333007812
157.74400329589844,112.08126068115234,160.68861389160156
158.04405212402344,112.13307189941406,160.73468017578125
157.91021728515625,112.16180419921875,160.75624084472656
157.81434631347656,112.0703353881836,160.65003967285156
158.0924835205078,112.13384246826172,160.7089385986328
158.03970336914062,112.12077331542969,160.68861389160156
157.96722412109375,112.04785919189453,160.61087036132812
158.13546752929688,112.09318542480469,160.6654052734375
158.12100219726562,112.11821746826172,160.66567993164062
157.8921661376953,112.0450439453125,160.5767059326172
158.2791748046875,112.08549499511719,160.62158203125
158.2036895751953,112.0826644897461,160.62010192871094
158.0434112548828,112.01488494873047,160.5200958251953
158.246826171875,112.08922576904297,160.6094970703125
158.23519897460938,112.05432891845703,160.62124633789062
158.00559997558594,112.0098876953125,160.5325164794922
158.22874450683594,112.06205749511719,160.6383056640625
158.0799102783203,112.05817413330078,160.61961364746094
157.9436492919922,112.02987670898438,160.59898376464844
158.05337524414062,112.07220458984375,160.6483917236328
157.95355224609375,112.06744384765625,160.6523895263672
157.85910034179688,112.01648712158203,160.6057586669922
158.01429748535156,112.09357452392578,160.69839477539062
158.0806427001953,112.0865707397461,160.69386291503906
157.78453063964844,112.04895782470703,160.63316345214844
157.97097778320312,112.09896087646484,160.7166290283203
157.98846435546875,112.07655334472656,160.7015380859375
157.77120971679688,112.02279663085938,160.64453125
157.95404052734375,112.08368682861328,160.6909942626953
157.8854217529297,112.08219909667969,160.7039337158203
157.75743103027344,112.02722930908203,160.65870666503906
157.81326293945312,112.03114318847656,160.66665649414062
157.84078979492188,112.00868225097656,160.667724609375
157.9274139404297,112.08464813232422,160.70555114746094
157.8980255126953,112.04796600341797,160.6915283203125
157.8057098388672,111.991455078125,160.63600158691406
157.94369506835938,112.02948760986328,160.6505584716797
157.98704528808594,112.04605865478516,160.65948486328125
157.82131958007812,111.9869613647461,160.63153076171875
157.9812774658203,112.03153228759766,160.6668243408203
157.9974365234375,112.03793334960938,160.66351318359375
157.81423950195312,112.0140609741211,160.6255645751953
157.96981811523438,112.07188415527344,160.6591339111328
158.020751953125,112.04957580566406,160.64939880371094
157.84530639648438,112.00353240966797,160.61915588378906
158.0393829345703,112.08634948730469,160.6848907470703
157.90052795410156,112.022705078125,160.64048767089844
157.85997009277344,111.98746490478516,160.58766174316406
158.09298706054688,112.04067993164062,160.61038208007812
158.0802459716797,112.0514144897461,160.60733032226562
157.89137268066406,111.94602966308594,160.5308837890625
158.1306915283203,112.05228424072266,160.5853271484375
158.12355041503906,112.04541015625,160.5915985107422
157.98794555664062,112.05078887939453,160.60101318359375
158.0504913330078,112.02552795410156,160.58795166015625
158.0396728515625,112.0290298461914,160.6165771484375
157.8869171142578,112.0229721069336,160.61395263671875
158.04151916503906,112.09920501708984,160.71005249023438
157.97198486328125,112.09573364257812,160.68218994140625
157.85992431640625,112.02259063720703,160.6315155029297
157.9681854248047,112.0888900756836,160.70245361328125
158.0990447998047,112.081787109375,160.72071838378906
157.76490783691406,112.01948547363281,160.61068725585938
157.93995666503906,112.097412109375,160.69654846191406
157.9525604248047,112.07471466064453,160.71435546875
157.81846618652344,112.03299713134766,160.6444549560547
158.0483856201172,112.06855773925781,160.7188720703125
157.88880920410156,112.07632446289062,160.6879119873047
157.78091430664062,112.01143646240234,160.65127563476562
157.8908233642578,112.07916259765625,160.74363708496094
157.7935028076172,112.06839752197266,160.7357177734375
157.66168212890625,112.01669311523438,160.66432189941406
157.9956512451172,112.07230377197266,160.7431182861328
157.90879821777344,112.06398010253906,160.72802734375
157.7007293701172,111.95978546142578,160.63307189941406
157.85049438476562,111.96212005615234,160.63983154296875
157.88119506835938,111.98726654052734,160.64749145507812
157.6754150390625,111.9798355102539,160.63101196289062
157.7613067626953,111.95648956298828,160.63294982910156
157.7301483154297,111.91773986816406,160.61080932617188
157.5917510986328,111.96530151367188,160.60504150390625
157.75021362304688,111.8983383178711,160.61141967773438
157.5847625732422,111.86945343017578,160.56234741210938
157.58938598632812,111.89928436279297,160.60543823242188
157.750732421875,111.91895294189453,160.5657196044922
157.8975067138672,111.92300415039062,160.56101989746094
157.6621551513672,111.93762969970703,160.60342407226562
157.8131866455078,111.91661071777344,160.53797912597656
157.82623291015625,111.90754699707031,160.56008911132812
157.66954040527344,111.93196105957031,160.54983520507812
157.73805236816406,111.88074493408203,160.53933715820312
157.60911560058594,111.83817291259766,160.47320556640625
157.79920959472656,111.89856719970703,160.5836944580078
157.7218475341797,111.93505096435547,160.5899658203125
157.61949157714844,111.87239074707031,160.5169677734375
157.80267333984375,111.9598617553711,160.6097412109375
157.8015899658203,112.02754211425781,160.66644287109375
157.51744079589844,111.89491271972656,160.56011962890625
157.73040771484375,112.05931091308594,160.70443725585938
157.7022247314453,112.037109375,160.71522521972656
157.4446258544922,111.90969848632812,160.58102416992188
157.6514129638672,112.02887725830078,160.68959045410156
157.63706970214844,112.01213836669922,160.65736389160156
157.41224670410156,111.91328430175781,160.56710815429688
157.5373992919922,112.044189453125,160.71327209472656
157.55233764648438,112.03046417236328,160.71694946289062
157.31765747070312,111.91260528564453,160.60072326660156
157.59042358398438,111.98880767822266,160.65773010253906
157.70880126953125,111.9789810180664,160.6351776123047
157.45291137695312,111.88732147216797,160.58642578125
157.809814453125,111.95896911621094,160.64976501464844
157.69541931152344,111.95240783691406,160.62393188476562
157.5333251953125,111.89168548583984,160.5699920654297
157.7405548095703,111.95950317382812,160.60939025878906
157.84498596191406,111.95411682128906,160.61773681640625
157.62472534179688,111.88740539550781,160.53147888183594
157.9124755859375,111.97257995605469,160.63694763183594
157.85195922851562,111.96329498291016,160.60650634765625
157.70938110351562,111.8766860961914,160.50572204589844
157.7875518798828,111.9411849975586,160.55860900878906
157.98988342285156,111.96637725830078,160.5606231689453
157.9147491455078,111.87615203857422,160.46685791015625
158.101318359375,111.9446029663086,160.57933044433594
157.85494995117188,111.89778137207031,160.5752410888672
157.98983764648438,111.88994598388672,160.47674560546875
158.0730438232422,111.92444610595703,160.52369689941406
158.09524536132812,111.91133117675781,160.53671264648438
157.90609741210938,111.9033432006836,160.5009002685547
157.96763610839844,111.90714263916016,160.5139617919922
157.98843383789062,111.91339111328125,160.5335693359375
157.7741241455078,111.94020080566406,160.54075622558594
157.84707641601562,111.92887115478516,160.5403594970703
157.91452026367188,111.95020294189453,160.54168701171875
157.75880432128906,111.9618148803711,160.55429077148438
157.92764282226562,112.03165435791016,160.6239471435547
157.89053344726562,111.97943878173828,160.60411071777344
157.67381286621094,111.942138671875,160.54470825195312
157.8882293701172,112.00753021240234,160.5990753173828
157.9373779296875,112.01184844970703,160.6251220703125
157.66041564941406,111.94901275634766,160.52467346191406
157.9459991455078,112.01569366455078,160.640380859375
157.86761474609375,112.02094268798828,160.62681579589844
157.63746643066406,111.96945190429688,160.5777130126953
157.87918090820312,112.00531005859375,160.60499572753906
157.7292022705078,111.98627471923828,160.5944061279297
157.64967346191406,111.94718933105469,160.5483856201172
157.88104248046875,112.00578308105469,160.61903381347656
157.79872131347656,112.00178527832031,160.60797119140625
157.7220916748047,111.95623779296875,160.54501342773438
157.7149658203125,111.96211242675781,160.58425903320312
157.6992645263672,111.93425750732422,160.5478515625
157.79664611816406,111.9558334350586,160.56320190429688
157.84397888183594,111.95636749267578,160.55499267578125
157.7039031982422,111.94036865234375,160.49916076660156
157.93760681152344,111.99313354492188,160.54071044921875
157.90333557128906,111.99091339111328,160.55227661132812
157.7075653076172,111.94021606445312,160.4967041015625
157.84295654296875,111.97603607177734,160.5267333984375
157.8417510986328,111.98417663574219,160.51852416992188
157.6422576904297,111.94218444824219,160.48666381835938
158.0279083251953,111.989990234375,160.5394744873047
157.95858764648438,112.00531005859375,160.533447265625
157.8575439453125,111.94219970703125,160.48019409179688
157.84487915039062,111.98049926757812,160.52880859375
157.96636962890625,111.99927520751953,160.5535430908203
157.77064514160156,111.95842742919922,160.48751831054688
157.9104766845703,112.03734588623047,160.5591583251953
157.88589477539062,112.01569366455078,160.53756713867188
157.73138427734375,111.96576690673828,160.4741973876953
157.9054412841797,112.00806427001953,160.564453125
157.83241271972656,112.02066040039062,160.5661163330078
157.74481201171875,111.9361801147461,160.54400634765625
157.86183166503906,112.0233154296875,160.6529083251953
157.67149353027344,111.99984741210938,160.6361846923828
157.67373657226562,111.98551177978516,160.6096649169922
157.74485778808594,111.98892974853516,160.61724853515625
157.67149353027344,112.02719116210938,160.63632202148438
157.65106201171875,112.02320098876953,160.6340789794922
157.7965850830078,112.03746795654297,160.66429138183594
157.7336883544922,112.02410125732422,160.606689453125
157.6197509765625,112.06816101074219,160.64010620117188
157.7471160888672,112.13102722167969,160.68817138671875
157.80360412597656,112.12728118896484,160.69277954101562
157.66455078125,112.04016876220703,160.60812377929688
157.91160583496094,112.1123046875,160.7158966064453
157.91844177246094,112.111328125,160.7175750732422
157.75900268554688,112.0340576171875,160.64614868164062
157.9768524169922,112.09696960449219,160.7152557373047
158.01535034179688,112.10122680664062,160.68997192382812
157.7671356201172,112.05908203125,160.62315368652344
157.90142822265625,112.1138687133789,160.65432739257812
157.95523071289062,112.07667541503906,160.63775634765625
157.81883239746094,112.05633544921875,160.5821990966797
157.9608612060547,112.09691619873047,160.61672973632812
158.0575714111328,112.09049224853516,160.62925720214844
157.81634521484375,112.00247192382812,160.53033447265625
158.01019287109375,112.0920639038086,160.5834197998047
158.0021209716797,112.05196380615234,160.58094787597656
157.7857666015625,112.02323913574219,160.5284423828125
157.9689178466797,112.05184173583984,160.56661987304688
158.0057373046875,112.07307434082031,160.5737762451172
157.8529052734375,112.0167007446289,160.5159149169922
157.97982788085938,112.09038543701172,160.63504028320312
157.8974609375,112.0877914428711,160.61399841308594
157.71620178222656,112.0482177734375,160.5833282470703
157.8921661376953,112.0833740234375,160.64801025390625
157.8448028564453,112.0768814086914,160.6490936279297
157.73753356933594,112.02179718017578,160.57785034179688
157.79367065429688,112.0659408569336,160.62962341308594
157.62754821777344,112.0593490600586,160.64100646972656
157.75332641601562,112.10157775878906,160.6857147216797
157.76710510253906,112.09001922607422,160.68408203125
157.67724609375,112.08197784423828,160.70529174804688
157.8620147705078,112.13671875,160.73707580566406
157.8722686767578,112.14427947998047,160.7561798095703
157.65750122070312,112.07412719726562,160.6981201171875
157.83282470703125,112.12318420410156,160.76065063476562
157.80235290527344,112.1173324584961,160.76051330566406
157.62001037597656,112.09294891357422,160.73171997070312
157.7843475341797,112.14214324951172,160.78964233398438
157.73150634765625,112.14530181884766,160.7924346923828
157.59396362304688,112.07219696044922,160.7361602783203
157.77890014648438,112.16136932373047,160.79745483398438
157.80303955078125,112.1313705444336,160.80410766601562
157.5762481689453,112.10267639160156,160.7532501220703
157.73797607421875,112.1702651977539,160.81402587890625
157.774169921875,112.17196655273438,160.8249969482422
157.58177185058594,112.08332824707031,160.6932373046875
157.84207153320312,112.16487121582031,160.77806091308594
157.80120849609375,112.14707946777344,160.7698211669922
157.70542907714844,112.08216857910156,160.69149780273438
157.85888671875,112.11183166503906,160.73910522460938
157.76014709472656,112.12699127197266,160.72064208984375
157.69671630859375,112.1160659790039,160.7360382080078
157.90023803710938,112.18081665039062,160.8020782470703
157.8647918701172,112.15360260009766,160.8085174560547
157.7178497314453,112.0850830078125,160.71360778808594
157.93641662597656,112.15789794921875,160.75994873046875
