b,g,r
0.0,0.0,0.0
0.0,0.0,0.0
0.6447940886358704,0.7409376761364671,0.9989046623527289
0.6450730826457486,0.7412197600751275,0.9991124195768301
0.6450432975460848,0.7415282217706017,0.9990733193459534
0.644987905552343,0.7417803910528359,0.999004213768917
0.6451745061571528,0.7420709739151062,0.9991925893013711
0.6451387938356116,0.7422096903405523,0.9991776125396435
0.6451685141568942,0.7424090393307772,0.9992531052650638
0.645185168678694,0.7425212354869706,0.9992349932296876
0.6450320973639798,0.7424843895437587,0.999134651517249
0.6448220599408613,0.7424594498670067,0.9990500898184644
0.6451793969249314,0.742476629093694,0.9992792109526769
0.6451226769743754,0.7425306283522408,0.9992301089397471
0.6449698712510241,0.7425888122942114,0.9991339778220848
0.6454502353366199,0.7426027137348111,0.9995019190271531
0.6452772317140185,0.7426996351487237,0.9993731396053792
0.6452321135715308,0.7428075947987884,0.9992998493449189
0.6449284649097776,0.7427988367616536,0.9990467861210245
0.6454342739434986,0.7428184257441206,0.9993803170500134
0.6458862974873308,0.7427587130323544,0.9996547700953713
0.6454088160396972,0.7426977436199934,0.9993497805211279
0.6458947704995884,0.742637020365481,0.9997023562941817
0.6463577610233533,0.7425254460817468,1.0
0.6461594420093891,0.742422435500004,0.9998772579233515
0.6459038394729528,0.742326706008305,0.9997075903873806
0.6456669254994851,0.7422271157250881,0.9995391795520044
0.6455267645161389,0.7422260404039606,0.9994490339567628
0.6453814925185181,0.7422101697005731,0.9993657419142492
0.6453136954647813,0.74228835720665,0.9993520348087928
0.6453110589846676,0.7423402446899703,0.999380239315956
0.6452322819953219,0.742349495042802,0.9993379001660205
0.6451515940437316,0.7423761060017883,0.9992726165134734
0.6451309945185182,0.7423650548099601,0.9992468606291186
0.6451344666397492,0.7424198443647569,0.9992624722189816
0.6449882229664107,0.7423391434574904,0.9991423601446087
0.6450045730298191,0.7423489379487239,0.9991637110990437
0.6450960077148461,0.7424217358934873,0.9992441269814332
0.6452426918811766,0.7424856851113822,0.999350946531989
0.6451891331156219,0.7424491241930476,0.9992785372575127
0.645164918956739,0.7424172273181575,0.9992413155996901
0.5376629187262864,0.6186715384903673,0.8327586386811678
0.4301607042953203,0.4948976657405446,0.666189218184031
0.3225332343865154,0.3710717200972789,0.49955945518531186
0.21492300056542218,0.2472660457687621,0.3329585607441383
0.1075591716143496,0.12365628271375717,0.1665918081935737
2.0336740914115667e-05,-2.541889282111539e-05,7.12539160602102e-05
-5.1365297591791826e-05,5.649437783744488e-05,2.8740152400383267e-05
2.727162649808751e-05,0.00030386746872963587,0.00019609797920241227
0.00015839739321460504,0.0005803499487941297,0.0003815509990006607
0.00028809781961601873,0.0008854793003887263,0.000555701630805858
0.00037479195073295175,0.0010909108366542791,0.0006348108612712815
0.0004925365912023822,0.0012637643173633928,0.0007249612069262023
0.0006448950558197386,0.0014371784909497285,0.0008192842879935344
0.0007043560675872216,0.0014545337708810684,0.0008054376930898598
0.0003195296577057453,0.00126227599806745,0.0004287326928088129
-0.00011149172728580411,0.0009815030298903796,6.006496220652039e-05
7.024092613113892e-05,0.0009172017055050983,0.00024202556354856473
-0.00020744614392006444,0.0006947766405787468,3.787001744212062e-05
-0.0006341939551536926,0.00044437336096710817,-0.0003086121252713368
-0.0005455888617928986,0.0004214462765423343,-0.00017627968126541994
-0.0003383343179297002,0.00044223768971566024,1.3183984039968973e-05
-0.00045825126542271307,0.0003592015937839321,-7.908403887308787e-05
-0.0006660918377078049,0.00020666534849841416,-0.00022368709174442025
-0.0007671197691305455,0.00014398276388312127,-0.0002522726397409112
-0.0008668001662733033,0.00013733909310976105,-0.00022088089227165355
-0.0009663893698500148,2.723643024467667e-05,-0.00023184931172468034
-0.0010308560950342488,-4.1681577390244526e-05,-0.00021433885158087757
-0.0008573451857331592,-3.8927920383323275e-05,-8.207032224366497e-05
-0.0007106800930370315,9.885382499882309e-05,2.271705852685552e-06
-0.000545996173857993,0.0001884102248757817,0.00010427851059051538
-0.0003847791216635282,9.688024365264588e-05,0.00012735343367716503
-0.0003545336636371512,0.0001115466449574663,-2.473958351504149e-06
-0.00030553702354053013,0.00016141822505539905,-3.962565552272736e-05
-0.00029424593577339784,0.00012442329156769802,-7.920524642158778e-05
-0.0003155951627849543,6.939319304791255e-05,-0.0001241492070387008
-0.0003817569942532574,-3.1621062937686964e-05,-0.00026319369899750533
-0.0003235675101325156,2.2391439189096088e-05,-0.00023752361001085163
-0.00013754854320914773,7.75506626149947e-05,-5.699864154734113e-05
-0.00013905773553893853,6.176633040251998e-05,-2.4871299571691522e-05
-0.00013228342836380148,0.00014567189616147564,-1.0705131319862304e-05
-4.1734479735384776e-05,0.00016880871858953542,2.0148667680979736e-05
6.670920878922338e-05,0.0002104312756758171,0.0001239122621165574
-5.560561844742867e-05,0.000206521540491899,1.7587474441077567e-05
-0.00011057799223195585,0.00022414514687425275,-4.8761134693201264e-05
-8.029618633579917e-05,0.00017722184683143468,-0.00010258779484187389
-0.0001237266360661783,0.00020325570241746824,-0.00014397211143962424
-0.00013692623889441466,0.00020275575726683173,-0.00013849560314376498
-0.0002003648591937127,0.0001961300804883279,-0.00016419764946554307
-0.00022328733715532768,0.00018886266588073874,-0.00017074904703342814
-0.0001733861029542362,0.00016417778409418378,-0.00012351466680786695
-0.0001276436408245157,0.0002193842237618627,-6.559617224939941e-05
-0.00020420305025444023,0.00010941082975445491,-0.00011936625927686602
-0.0002201744480367899,2.301863787011503e-05,-0.00014176748719776163
-0.00014619019518626332,1.685850172436649e-05,-0.00012124180933958473
-0.00012391514115632133,-1.5361401359885205e-05,-0.00010983635174290916
-0.0001762526182973537,-7.924814410488053e-05,-0.00017936658705609252
-0.0003705761736864565,-0.0002671774254889153,-0.0003727460335265099
-0.0002478729640666596,-0.000273516493918422,-0.0003033027451985976
-0.00029606678409218565,-0.0004067388489291796,-0.0003633512968836376
-0.00041361543397009477,-0.0005974554720786549,-0.0005137186180146509
-0.00044508196448082946,-0.0007141275265072529,-0.0005861455985803644
-0.00040336648640433424,-0.0007777388891560909,-0.0005503156682897622
-0.0002703098920733688,-0.0007558591991782695,-0.0004346466711068725
-0.0003237427716409802,-0.0007734995039883194,-0.0004744914215099948
-0.0003290566142245427,-0.0007436612860516412,-0.0005099870953543568
-0.00027238020913661657,-0.000620412786414386,-0.00041085141242125904
-0.00028712196929225685,-0.0005982522461670951,-0.00041170475962936087
-0.00043263271123632717,-0.0006324617092650863,-0.0005094029383081941
-0.0004945110362610292,-0.0006355561005579095,-0.0005377341231947115
-0.0005051212312657005,-0.0006407461444571073,-0.000530791032348455
-0.00053450067431164,-0.0005706739300216921,-0.0004698220518429458
-0.0005423528217731901,-0.0005587231824067861,-0.0004897714900133454
-0.000474289169010404,-0.000505389125858935,-0.00044350820969914044
-0.0006390753660552207,-0.00048353376376252384,-0.0006030259810033844
-0.0008959681438933341,-0.0004858597395029054,-0.0008658289943857794
-0.0007505645741813279,-0.00037556734795591353,-0.0007684427596013866
-0.0008578901878459461,-0.0003904017411970959,-0.0009063779577710564
-0.0010714186618781824,-0.00034208066763964304,-0.0010590525408890052
-0.0008265749508431049,-0.00011146689557276333,-0.0008453853691458153
-0.0005032168188338082,0.00010976495157205428,-0.0005970809090842146
-0.0003585991548382416,0.00026863724229652373,-0.00044225827484715356
-0.00028683053855314166,0.0003508882242481141,-0.0003781687037924524
-0.00012254212737933162,0.0005021231438321686,-0.0002362443089580607
-7.660813716814073e-05,0.0005685545253409333,-0.00025964916993323516
-5.538321267257941e-05,0.000545252446064712,-0.00028195625327369714
-0.0001861673094161019,0.00041881670612213236,-0.00040131733028192257
-0.00021767429042737256,0.00037065858618164766,-0.00048363381037559315
-5.879573779406144e-06,0.0004444148191309051,-0.00033855859508028017
0.00011947012061524795,0.00039312243320563183,-0.000281682600601707
0.00026107400641439183,0.00021562203933514894,-0.00022108991051480537
0.0003849906590656046,0.00016143722671506082,-0.00010155018912749316
0.0004943875974567317,9.256773088985227e-05,-4.399603697311492e-05
0.0006029373785732027,-3.6440862400931975e-05,6.794100569556264e-05
0.0004581018432905502,-0.00027458332187972666,-6.737844144260979e-05
0.00043077198822557395,-0.00038292012607462554,-9.267699042692279e-05
0.0004525422747139892,-0.0003936199311735115,5.475932486516489e-07
0.0004852578763665577,-0.00039275765894453547,0.00010796368071918212
0.0006417918114822091,-0.0003127498803565241,0.000318949891194238
0.0006124847762719299,-0.0003171610002105745,0.0003759707013425873
0.0006985836660398795,-0.0002362638864247486,0.000548034893464639
0.0006528885641035027,-0.00028366784205618664,0.0005738980220284268
0.0006280541162332215,-0.00027944688273796197,0.0006027226742274632
0.00045592615339325675,-0.00027929616503786673,0.000491013651460827
0.00021978066745418425,-0.0002782467552628479,0.00034584141254608865
0.000263753168282963,-0.00015877310782464206,0.0003947653569046947
0.00022839172964027568,-8.003844035520337e-05,0.0003706794592162679
0.0001712249522065535,2.4293476411310524e-05,0.0003671619931185195
8.969516956485225e-05,7.932990881687768e-05,0.00030676407003214697
0.00017306249895226533,0.00012282024256214495,0.0003295227306650963
0.00030336853124226035,0.00015260361480178442,0.0003948782152408909
0.0002830440262450177,0.00011369699930854407,0.00031030327287544094
0.00042328871765510414,0.00018150067483648115,0.00038666230117996093
0.000593405311759616,0.00027800074136749456,0.00048629620184030027
0.0006794001962391647,0.0003639020570744079,0.000537170119423035
0.0007978617174599968,0.00041331198324261013,0.0005962220917012564
0.0007170374433652937,0.00042386956380681255,0.0005285037796852144
0.0008200883316563939,0.0005953280060894917,0.0006700503006283947
0.0008646537706006461,0.0006491683416737608,0.0007145909078603784
0.0007985462090208113,0.0006706071068033642,0.0006489191608339722
0.0007652964016520608,0.0007014990530727766,0.0006624494932854909
0.000732060917502873,0.0007148267011676974,0.0006540419791692392
0.0008743610269473017,0.0007685318658639709,0.0007351902891213758
0.0007524217703691232,0.0006676874731873752,0.0005744879371525728
0.000585041127182892,0.0005791226143978415,0.00040664974266659524
0.0005043754881458976,0.00048570455929121474,0.00031336484312144224
0.0004832120311370559,0.00040661001192619333,0.0002341057586683933
0.0004000597659746771,0.00028943930791411896,0.000143148418333909
0.0001362852208254634,3.550387910587449e-05,-0.00010173041697918369
7.64974381131188e-05,-0.0001167464775907803,-0.00017760806993494967
1.7893876183721717e-05,-0.0004176517029250335,-0.0003154014754261707
2.1110554661384746e-07,-0.0006710974071722203,-0.0003984335407040827
-0.0001740380613736725,-0.0009825718731789783,-0.0006034021274696562
-0.00046434835061145486,-0.0012741002119105631,-0.00092452670089561
-0.0006024728456052529,-0.001406516292004208,-0.0010801923177988584
-0.00038216214704026627,-0.001404474333477731,-0.000940514293272481
-0.0004787372125412602,-0.0013948783519938956,-0.0010145054558173597
-0.0005861448068463792,-0.001286935976164024,-0.0011115270602914474
-0.00024437975387415367,-0.0010156511694532145,-0.0008244884391868803
5.801897302622731e-05,-0.000768254902295982,-0.0005524664544986192
0.00013881985492815758,-0.0006222596900379791,-0.0004719850739679036
0.00023981813224773933,-0.000513287337947441,-0.0003520365290190612
0.0004472869486012147,-0.00029053535812466417,-0.0001274258415105087
0.00044405810617975764,-0.00023334540442590063,-8.286983142030564e-05
0.0005012932607937795,-0.0002153217555513274,1.3069542234257859e-05
0.0005080314360276404,-0.00020092526416703568,7.241690393155932e-05
0.0005515673305666886,-0.0002253242573631831,0.00014192381902504894
0.0005428957365832873,-0.00018079934089486246,0.00019328141518773107
0.0005721189197781072,-0.00010874159710184072,0.0002683060088400666
0.0006005093408955465,-0.00010364756915803504,0.0003704487042275706
0.0006537461578954687,-5.084095258898272e-06,0.00043913696453782756
0.0006597205960154425,5.433077990623318e-05,0.0005015654739462739
0.000613686271290372,0.00010872201963360839,0.0004969908246690013
0.0004647071508668365,0.00010474750606851628,0.00035732244492285987
0.0002815819062062159,8.2582359359611e-05,0.00022669309653402096
0.0001662023244336027,6.56533211753149e-05,8.920069458752771e-05
-3.987037385092051e-06,8.174182387540826e-05,-5.6683674663117554e-05
-0.00010145626047479086,0.00019727118765947913,-0.0001138913344536105
-0.00013041126117170496,0.00034099555777958285,-0.00010785096633686603
-0.0001252424501864222,0.00045518127398669583,-6.37168794352193e-05
-0.00017095367474115236,0.00046533291002835963,-0.00011326269625155129
-0.00021910862773797402,0.0005118208993501517,-9.779073978820762e-05
-0.0001692624551608804,0.0005661280711351087,2.295357158581408e-05
-0.0001934252951704141,0.00046496770391102837,-5.461479711859337e-05
-0.00027863744087795825,0.00035229880948664803,-7.962630589921878e-05
-0.0002909321616962806,0.0002599136096796797,-2.0785655095342625e-05
-0.000245858428388316,0.000234478162383976,5.538062153671467e-05
-0.00019845857538763415,0.00021892890371868616,0.00011929644257784266
-0.00022695436933757463,0.00011209006360073836,0.00011196137054854341
-0.0002787010676427634,-1.2726360764826898e-05,0.00011509865952543156
-0.0002673217373262887,-0.00011863008896344794,0.00011068062997702885
-0.00030969752303529617,-0.0001925291222544151,7.844575588924818e-05
-0.00040887653550714944,-0.000338524478465526,-2.8933335926764167e-05
-0.0005126499186768433,-0.0005147098711981766,-0.00018210196216503048
-0.0006707121917327385,-0.0007551444777064978,-0.00039219466283534776
-0.0007161382474587395,-0.0008134887821588632,-0.00045813833511189345
-0.0007998907203102389,-0.0008649347648232233,-0.0004955039448902377
-0.000900493921480827,-0.000974413683854851,-0.0006072696847288712
-0.0009288803119429057,-0.0009960456325116076,-0.0005355112170571821
-0.000908368453471889,-0.0009139298214480128,-0.00042151810856942397
-0.0008140870464968574,-0.0008089198909588017,-0.0003124595292560655
-0.0007846148264145843,-0.0007801741244327707,-0.00021466720599679857
-0.0006482938335286841,-0.0007231895901780335,-0.00011929313168338834
-0.0005168330906057924,-0.000677400343661223,8.966911425541362e-06
-0.0004121878624022821,-0.0005986255135943753,3.402290136051886e-05
-0.00023529242663564208,-0.0005075271003415763,0.00012615791266443768
-7.305281170572116e-05,-0.00035497602800409287,0.00025059876637075715
9.241031942313611e-05,-0.00023378517765697762,0.0003507716231627731
0.0001535387986988235,-0.00020218340428053495,0.0003568966350305064
0.00023878549287658456,-8.999775657986714e-05,0.0003969183023908649
0.0003037310742498757,-5.821057308309332e-05,0.0004525426345940562
0.00015539002088090412,-0.0002144420651345211,0.0002717026992463221
-0.00015978868888880582,-0.0003412728092506987,-4.341274363942195e-05
-0.0005543081038727706,-0.0004362906024684241,-0.00044223509858133995
-0.0005261988209310165,-0.0002537210843433441,-0.00043918590820223063
-0.000558795302337775,-0.00023226504497901842,-0.0005735626139650456
-0.000765601507828317,-0.00018363649003949256,-0.0008214140572154354
-0.0004356319502846835,0.0001567394985120132,-0.000501703811779477
-0.000113697503141719,0.0004016118559862163,-0.00023464399503839143
-0.00010252186484587543,0.0004352891286953196,-0.00022503649739781702
-0.00010814434042787975,0.0005332169107472535,-0.00015454221582228214
-0.0002453446638505194,0.0006279070693084198,-0.00015248053587755381
-2.717877748558625e-05,0.000500428253476603,-7.836600649450636e-06
-0.00033613134913738137,0.00035321290442056334,-0.00025162903053300637
-0.0005388874662835079,0.00020362681056589077,-0.0004058103587995336
-0.0003737359911436477,0.00012552394823985773,-0.00030606000100541676
7.136288769260933e-05,3.532854562124204e-05,-3.919667870369968e-06
0.00028857833125307526,-0.00012474142539481244,0.00010273405003037367
7.898701525366256e-05,-0.00013553767830532543,-2.5864424131720167e-05
0.0004975863539195672,-7.087575426587193e-05,0.00031157307309724266
0.0008189708326057466,4.978636053914553e-05,0.0006453855721178705
0.000665772048432691,2.5974403427380284e-05,0.0006277718984211963
0.0003727629478827096,1.3136767798188685e-05,0.0004491653777021529
0.00033675394135524144,9.577483656576376e-05,0.0004912826976704304
0.0002615151471887968,0.00014173135525802986,0.0005086284767715533
8.167855698912573e-05,0.0001108183920024337,0.000403160923006428
-7.85856771942829e-05,1.4560164760621744e-05,0.0002719226578345535
-3.632908370725344e-05,7.30602252317039e-05,0.00032149208277216173
-7.806946547141284e-05,3.4132304848380634e-05,0.0002663024854860592
-0.00017512259542516213,-6.871647489391998e-05,0.00018118340471874757
-0.0002044418665523143,-9.523429696611672e-06,0.00020605355267638685
-0.00027438063752235653,-4.0758701387018525e-05,0.00016618922480657664
-0.0004133589115804912,-1.2502947326716653e-05,0.00010844073751022083
-0.0006234855129370592,-5.77785732572939e-05,-5.2126731473713315e-05
-0.0007395963706568046,-6.901488730278303e-05,-0.00014072959358025393
-0.0008968183961331684,-4.785668453952204e-05,-0.0003018049250716656
-0.0007398426724576015,-4.4921360160642194e-05,-0.0002823776006544551
-0.0007990970411892938,6.931718641467097e-05,-0.0003299283872829635
-0.0007968565009369751,0.00010118109630713704,-0.00037448123043259235
-0.00045513924001510053,0.0002608344703563837,-0.0001421725680093749
-0.00026263775653655,0.0004449005130381466,1.1942398401830203e-05
-3.8369386785731e-05,0.0007232225551756465,0.0002649274563817753
-4.269838204771727e-05,0.0007727559921243142,0.00026154818416335
0.0003251273015747088,0.0009026105910741576,0.0004786101749355203
0.0006021074955340415,0.001032861489763987,0.0006884659306852386
0.0006272199146355726,0.0011335092440658671,0.000698664639016347
0.0007858502221192772,0.001162245653714789,0.0008103506294695053
0.0009726568221817076,0.0011243952137385842,0.0008841088777468291
0.000978128364135113,0.0011132110103011612,0.0009314404255426069
0.0006698522227341836,0.0009445423569674517,0.0007114147518547858
0.0004560377881384607,0.0008040813777405664,0.0005484399742747079
0.00035813627731906333,0.0006702001546175647,0.0004872439815319627
0.0001612904676933861,0.00045190132861966137,0.0002782928198905759
-3.356678958104047e-05,0.000261154043702994,0.00010474002056791012
-0.00016533594957387045,0.00010738628941503598,-0.00010940780676235532
-1.652359749338801e-05,9.338537801214054e-05,-6.0020049195161235e-05
0.00014136384590796082,0.00011954144881070721,-1.3426687041640163e-05
0.00011127176869293945,7.765905843882328e-05,-8.177867557759071e-05
0.00011508376049807042,0.00010090571621020746,-0.00010251006078446509
0.0001368192825893097,7.253264130443057e-05,-0.00011827337601075606
0.00023775119805665814,0.00017362607086847918,7.65709255789413e-06
-2.8900514882258955e-06,5.423102119937966e-05,-0.00018805567120426414
-0.0004022553932156366,-0.00014256152620031808,-0.0005548055298652547
-0.00024074950141637696,-0.00011090677850411175,-0.00042859334731234876
-0.00033556626572550386,-0.00014647615575052206,-0.0005036403974703639
-0.0005840286410854513,-0.00018515403158235924,-0.0006791214332716129
-0.0005953939360862623,-0.00013076322370890223,-0.0006516690750902044
-0.000600064025512673,-5.074623219534523e-05,-0.0006100561627826143
-0.0003693711518450566,2.120729038077198e-05,-0.00042196191245586157
-0.0001062551149287922,0.00012630531946853412,-0.00027011246196235154
0.00022663054940864468,0.00028400094688683003,-7.264391617806189e-06
0.0004047608770483469,0.00040509563732621753,0.00010996821173490607
0.00076403106394031,0.0005681887434150315,0.0003703788875270028
0.0010760417509913165,0.0007037698952122202,0.0005900608039375944
0.0010603794180628714,0.000825289099976801,0.0006498241867946776
0.001087597062577162,0.0009534740001641866,0.0007367148843101582
0.0009910004762575815,0.0010160651752857018,0.0007191422369225906
0.0008839545612476081,0.001040785469253399,0.0006578644794678482
0.0007750696599724272,0.0009462320650528322,0.0005419887672714555
0.0007553393886585903,0.0009496018364410406,0.0005438155176205624
0.0006662168599839341,0.0009578829607386071,0.00046681907004467247
0.00044416786954768644,0.0008439601008068794,0.0003556256831915636
0.00022787623767908408,0.0006912705466854016,0.00020521762365457083
0.00018477140727796997,0.0005477384963830702,0.00016528232746859615
0.00011539635217570503,0.0004992946318060579,0.00017915929623633572
-0.0001147429542367729,0.0003643802654794988,4.387051086689972e-05
-0.0002517046053138741,0.00019842165171005607,-5.93821980714175e-05
-0.00016149869420100827,0.00019846339777775213,4.812457911885665e-06
-0.00014601673307658932,0.00014350988170132325,1.633264522048817e-05
-0.00016683693664137664,0.00017762620788214174,5.674845304274712e-05
-0.00020519387158327555,0.00016153842494141018,3.2662699306656046e-05
-0.00015451184196130596,0.000140038624181322,8.910554234228868e-05
1.4787248974025554e-05,0.00014486072687653256,0.0002517384340224125
-0.0001283070434237509,1.7763095829609187e-05,0.00011050961505011172
-0.0001844769535475274,-1.5831116599564576e-05,3.9997915288291e-05
-9.278308302033023e-05,-0.0001434390573374945,3.0917857623426454e-05
8.596465456936368e-05,-0.00017883669989839806,0.00016840824424030885
0.00024751538740381467,-0.00020814042421422296,0.0002546230873127221
0.00020180459470377492,-0.0002597099176590486,0.00018673001762139043
0.00034629637271151487,-0.00023596892886267555,0.00033683779337378945
0.0004737633125065257,-0.00022555774744008087,0.0004901434618742377
0.0004352948867748474,-0.00015277477368026503,0.0005757286590813308
0.00038051951124433035,-0.00010401651802605546,0.0006069361480443095
0.00036044792983756546,-2.449054663067747e-06,0.0007325224274818122
0.0003048329545122555,1.7126252366809777e-05,0.0007669063603519661
0.00019623437368062802,-2.378244696016993e-05,0.0006900177327928786
-2.9033670442960465e-05,-6.457771214392729e-05,0.000515383998218621
-0.00011530969309742202,-0.00011005012040078337,0.0004210881240701465
-0.00031595317130557856,-0.00021251685164572082,0.00016213481790521806
-0.000460486191549384,-0.00025556280569598,-6.841633505857303e-05
-0.00047982174659274993,-0.00023474245817808482,-0.00012957633981469435
-0.0004646788643054613,-0.00022004971366378767,-0.00015231916573241715
-0.00034139495248629173,-0.00026609375514680654,-0.0001440699987715193
-0.00028622320524039315,-0.0001441842966248947,-0.0001328788856389718
-0.0001589414596395266,-3.570541184687571e-05,-5.823144611925802e-05
-0.0001880870527292735,-4.515528209223042e-05,-9.584522907567431e-05
-0.00016539295454899466,4.545556587759639e-05,-0.0001010676621646869
-0.0001892267203824733,0.00016553424339581295,-0.00013059739105525899
-0.00034396499877244473,0.00022173625480550514,-0.00023175185624670352
-0.0003229354890598342,0.00023519259595107628,-0.0002340054241514248
-0.0004896763377688787,0.00015756808598169767,-0.00036464988749535616
-0.0007907149345923369,-2.3754376330387114e-05,-0.0007012707452660639
-0.0007655289560410932,-0.00017113771732047214,-0.0007307427494198333
-0.0009088662393436678,-0.00036968791812961525,-0.0009038904679308858
-0.0010365324806254266,-0.0004666755499420565,-0.0010644490118962625
-0.0011757382707532,-0.0006030323148899383,-0.0011974715615894137
-0.0012956059866771382,-0.0006864236842540903,-0.001335832281745221
-0.0010643463741504171,-0.0007117154674956145,-0.0012590439887015577
-0.0008696232800999531,-0.0006576908734050663,-0.0011899148035438548
-0.0006029161456592877,-0.0006307544390410843,-0.0011253844515940433
-0.0005290715262083523,-0.0006700779394050316,-0.0011400052201296874
-0.00026605337662321063,-0.0006646215843828863,-0.0010561098749603105
-0.00011388644008655242,-0.000716349568933857,-0.0010194984294886963
-0.00028208789733950715,-0.0007632260845903574,-0.0011058429732757932
-0.00040341938875024675,-0.0008239758262623638,-0.001164846721648201
-0.0005810541617731957,-0.0008548343756779282,-0.0011963262798121107
-0.000638148099516567,-0.0008470428319906279,-0.0011677382846305463
-0.0006355810762225137,-0.0008633312839606632,-0.0010999538986653978
-0.0006395291746027334,-0.0008650222876132038,-0.0010576023688616328
-0.0005847898590388692,-0.0008923555975257423,-0.0010110877484272372
-0.00045079721710071166,-0.0008781216279029561,-0.0009093793560982703
-0.0003184824072103564,-0.0008130271282291327,-0.0007979662985569682
-0.00013722587489504225,-0.0007014076435797712,-0.0006392087375436535
4.272098250418811e-05,-0.000489620196505452,-0.00041905105990995545
0.00018771076231143815,-0.0003064934403499398,-0.00020084148412774432
0.00034586854749109504,-0.00014788659703672031,1.7130426972189393e-05
0.00045557649408802507,0.00010472706489244754,0.00019842006823822452
0.00044058087465404167,0.0002344696692185644,0.00027171493516087847
0.000506083622081597,0.0002451953856691478,0.0003532959647004928
0.0006053223026406072,0.0002507126323694422,0.00043371933259127884
0.0007497061886546046,0.000317430046420178,0.0005291842405922129
0.0008436968846506549,0.0004767226768621444,0.0006110144509700713
0.0009518248145547377,0.000498342101698901,0.0006697861487858494
0.0010789125129159814,0.0005475012635562553,0.0007699341018886568
0.001112859911474117,0.0007458542501828847,0.0007965731315062645
0.0010437837006369499,0.0007962069177256723,0.0006981275542604011
0.001078966998732953,0.0009009980412383877,0.0007351319885783192
0.0009585611184136401,0.0008718179716545916,0.0006264101128962742
0.0009250059169655064,0.0009252323533957162,0.0006069229044634033
0.0009678630060463277,0.0009736553449388803,0.0005925484377285563
0.0009993927314671772,0.0009310531947758308,0.0005457926977650932
0.0008597160744841277,0.0009296420337294986,0.0004928651615468068
0.0007703429974255827,0.000836183240219209,0.00035875822175372935
0.000941914873851484,0.0008015807882756863,0.0004608790364433521
0.0008687743234272789,0.0007212432157514859,0.0003713521467172166
0.0007257210573378368,0.0006230695637549898,0.00026375237654820556
0.0006058791807902,0.00044302582668712543,0.00022625202773423939
0.0006378057817603781,0.0003695947812116704,0.00021819489268412573
0.0006049089445920858,0.0003691187320862093,0.00025744008318132153
0.0005222572723643097,0.00040061628424420306,0.0002629273878745579
0.0006013788107220018,0.0004445351629684797,0.0003920689927752524
0.0005810975632881189,0.0003910286519742157,0.00041035506606974825
0.0006960660182680085,0.0004290525540600946,0.000515211255868309
0.000899591846534509,0.00048038740581319797,0.0007106741190305447
0.000913197321909116,0.0003626194451271626,0.0007445773963136228
0.0008754272791015803,0.00030937895735194687,0.0007390708020568255
0.000797405749632854,0.00019810510135400094,0.0007718613307039791
0.0008299809981256975,0.00017949513615440736,0.0008331448462367046
0.0007446148957989993,0.00012143168197382795,0.0007797575274644186
0.00038936204817925315,-7.006386522156702e-05,0.00047052899990866775
7.688107008076905e-05,-0.0002193581684578296,0.00021346117649136544
0.0002124204758102617,-0.00021065771210602695,0.0003564816215355302
1.3923249321654487e-05,-0.00035956017811158243,0.00010667574255096057
-0.0003446391977682848,-0.0005636027219318113,-0.00021001899726595238
-0.00040401016758609035,-0.0005483402155686266,-0.00022191014877064174
-0.0005037416676736533,-0.0005646907108324075,-0.0002274626637005148
-0.0003349523825992423,-0.0005440403705781685,-0.00012354979108510994
-0.00016167143655054818,-0.0005175460126780012,-2.1477920061434735e-05
6.430348366413882e-05,-0.00042947318168226297,0.00017960295617043757
0.00010672742130279186,-0.0003866477620326668,0.0002692897765214417
0.00024356073920853743,-0.0003328519076019774,0.00039702511474440643
0.0004590298295885656,-0.00025256255898359044,0.0005560030662060485
0.0002613482348949525,-0.000209716266299374,0.00048415721969362574
0.00010966224185004124,-0.00017230473584409298,0.00042928805946351435
-2.1748621719037552e-05,-0.0001268275771725145,0.000399818502493274
-2.234602234533422e-05,-2.4454558652548026e-05,0.00043535995305992055
1.1232139440109516e-05,8.044582439723778e-05,0.0004985260723012806
-0.00013687851882023165,6.961833391173447e-05,0.0003926920168501195
-0.0002563012792421359,0.00010969124816923384,0.0002966858494894045
-0.0004321896271092514,0.00012249088048141854,0.00014267020993036247
-0.00046356561183867823,0.0002484451011244529,0.00010716460339954854
-0.0005088360554982983,0.0003577234950783403,3.351431909290731e-05
-0.0005434659302899541,0.00035740967980894123,-3.3396710341988684e-05
-0.0003766813201851472,0.000445093696566072,9.206073209484447e-05
-0.00020696095384445338,0.0004938585740099624,0.0002052538995489549
3.420298530620681e-07,0.0005800123814518909,0.0003431349717809477
-5.356740266855204e-06,0.00045590088982552557,0.0002820079320263006
0.00015747696439413587,0.0002554323852219345,0.0003518924331078746
0.0001952899048849644,0.0002354862579467614,0.00037434130912832985
0.0001718923854611493,0.00021717096240534163,0.0003299875515384898
0.00016225329036551755,2.4165647073129748e-05,0.00028972634811857875
0.0002567931630820512,-8.307640247992843e-05,0.0003503530108671267
0.0002714682015053911,-0.0002300080222267349,0.00033502817330629696
0.00016398683182205617,-0.00021837252940072377,0.00024765048631641474
0.00021519522177953455,-0.0002650427619015006,0.00025700750754772375
0.00020178429747695303,-0.00035739096605472305,0.00022004006888277943
0.00016998660548670123,-0.00029759375448910153,0.0001565378218194485
-9.096842463421619e-05,-0.0004188915611413217,-9.62493022193933e-05
-0.00021366450863192954,-0.0004158862761110828,-0.000231048650932443
-0.00024891366474776337,-0.00041264231873376113,-0.0002582276443465328
-0.00039401767043376545,-0.0005128655587104482,-0.0003825418203279516
-0.0005251049300008734,-0.0006805009248882644,-0.0005201560056307431
-0.0007304654979510342,-0.0009734401367615103,-0.0007310115077293986
-0.0008865706721591724,-0.0012075553962585762,-0.0008763716039479972
-0.000957292757710562,-0.0013972024563585464,-0.0009356885917812336
-0.0011863982011593483,-0.001646136274380796,-0.0011211349897905733
-0.0011631900505358294,-0.0016355464485791147,-0.0010501167230876631
-0.0012117553385898449,-0.0016279010161287506,-0.0009953136368066578
-0.0012641764518186052,-0.0014995874228914867,-0.0009394883476694915
-0.001307452369122032,-0.0013366175396784669,-0.0008583383102939601
-0.001314062283160705,-0.0011393620427811062,-0.0007725642481166569
-0.0012740472375900272,-0.0010319154374957196,-0.0007127117589985339
-0.001389442006293901,-0.001075255053539347,-0.0007878480593699246
-0.0012345289702270954,-0.0008619958416452178,-0.0006898438388285141
-0.0009688200706404758,-0.0005740615514531933,-0.00044330509348476324
-0.0005739893595468088,-0.0002250629845596294,-0.00014803774659227819
-0.00023037797875956074,1.9887682780553018e-05,8.568207687572711e-05
2.5143368771850116e-05,0.00033353179270117746,0.0002710790993636567
-7.647757274253174e-05,0.00044269718436653303,0.00014704289461039895
-0.0002913230632398945,0.0004742433922865751,-4.445236467260245e-06
2.1358871791792486e-06,0.0006287730842888573,0.00021336184964074678
-0.00016747010932965467,0.0005362907169101279,4.9840486476822513e-05
-0.000488097832571695,0.0004620857857073748,-0.00016188232616943073
-0.0002896991411981768,0.0005422177948352135,2.446593085695129e-05
-1.2291265971532248e-05,0.0006812417016640692,0.00024973750180581433
7.422213346207976e-05,0.000712840596000748,0.0003208710740284499
5.287808872070834e-05,0.0007145362061164476,0.0002902021093416851
0.0001521342594429443,0.0007363843706153794,0.00034414306734527756
8.368531926296406e-05,0.0006338165850956561,0.00022959272082708724
0.00010276600736549802,0.0005487735109631305,0.00018404876844704062
7.389996897883253e-05,0.0004554863081867842,0.00013178844955639093
-2.1449633502376155e-05,0.0003111229353257956,-1.4695191695509515e-05
-8.940597008076256e-05,0.00015020595098742102,-0.00015513803297674726
-7.171189921464706e-05,0.0001062207104101388,-0.00014981771255583964
-9.43548224747251e-05,1.1299221052476867e-05,-0.00022199047396391527
-0.0001356918508529829,-9.406295987937506e-05,-0.0002920789549707917
-0.00014342430226246906,-0.00021229530958256907,-0.0003802787515953299
-0.00011774903100485809,-0.00031170565285169025,-0.00041831690492537596
-4.113643132512192e-05,-0.00033387396650503084,-0.0003656198357911156
-9.00119358494109e-05,-0.0004661396168017073,-0.00044719827419486527
6.429175157966853e-05,-0.0004450146669407308,-0.00033924538987151583
0.00016224306977671095,-0.00038562037690554826,-0.00022727077574052182
0.00026128676740900505,-0.00023813180703375323,-0.00010628476903117876
0.00033773295862421076,-0.0001220680935803925,1.0154802986099101e-05
0.0002895000556414768,-7.038775712820926e-05,4.3721520588655074e-05
0.0003649156228120497,3.472610667555159e-05,0.00010505081284520964
0.0004163218027598401,0.00019387967952572523,0.00018785543402887863
0.0005666279443095774,0.00040930205749483144,0.0003624517410946998
0.0005367992272023439,0.0004577690983384294,0.00042828111551632565
0.0006452639327123635,0.0005115803556273381,0.0005233101369861186
0.0007034721305880956,0.0006095986834613523,0.000594403258710535
0.0006068807265402446,0.0006009958265375455,0.0005578686835854042
0.0006080784068318297,0.000544519442694957,0.0006062974332050072
0.0003668321991831027,0.00047788393730932626,0.0004918871519434151
0.00028223206522608933,0.0005099741396781221,0.0004839186912988786
0.00023258001186401422,0.0005548865748178901,0.0004723046473145139
0.00030664977217722715,0.000576587044607282,0.0005134369040319395
0.0003943062221338889,0.0006520319779771144,0.0006039812461964252
0.00035469618539711226,0.0007504350893951478,0.0005425429823074715
0.000534423156180418,0.0007896391096332179,0.0005887966178414405
0.000718639052851351,0.000819858080499327,0.0006001060594819517
0.0007173401743326443,0.0008780404389987573,0.0005936237588545003
0.0007942883980019485,0.0008970885939583686,0.0006135315949079952
0.000797442241453425,0.0008533525342216473,0.0005606596241476538
0.0007338221697114442,0.0007333225124647067,0.0005052247327224709
0.0006692549660602226,0.0005732929919484161,0.00041357901412414724
0.0004385055192729445,0.00027567490957944866,0.00018126704080801987
0.0003524773818911114,7.865779712372738e-05,6.426389687452817e-05
0.0001280660678454747,-0.00017987171447691406,-0.00010553420352048562
1.0723197291658729e-05,-0.0003974193991578703,-0.00024415015050182525
-3.775766293909931e-05,-0.0005874525384097921,-0.00038160095032986917
-8.838283153828034e-05,-0.0006673209715021115,-0.0004268821903860941
5.2485603707579505e-06,-0.000669393447844217,-0.0003820821817262875
-7.709239155588644e-05,-0.0008129033295447681,-0.0004852136831145604
-3.4459219745578027e-06,-0.000747881093753497,-0.00046457716224825366
2.692664563063813e-05,-0.000685070391895352,-0.0004099849655845867
2.576891200718633e-05,-0.0006685644285167533,-0.0003698622439502145
-0.0002557258312883439,-0.0008604533964131425,-0.0006219841659910305
-0.0006416767218909873,-0.001019112782191435,-0.0008963348615055569
-0.000554368707648565,-0.0009442057972892461,-0.0008036676598127502
-0.0007655624968472769,-0.0010458871266509188,-0.0009285861461163623
-0.001120021593369138,-0.0011642133330306472,-0.00119511708336147
-0.0010408871713113788,-0.000861641863779954,-0.0010420164024480408
-0.0010502587316922986,-0.0006031179663049603,-0.0009955977979698093
-0.0006596662541508065,-0.0004843626391376519,-0.0007409598836051217
-0.00029320609880399164,-0.00031732697681809786,-0.00044405623480325477
-1.5561710509121907e-05,-0.0002157884477996794,-0.00026902576863123206
0.00014040325449162712,-9.788229323354874e-05,-0.00010203919392996127
0.0003111783568283161,-0.00019827021425059902,-3.0694012326764685e-05
0.0007072359704620365,-0.00011738216943875524,0.0002977436084782714
0.0005359512781929306,2.7529804334918172e-05,0.000296714064071523
0.0005773399853245641,0.00018371595152029638,0.0003608676937472641
0.0005824597806685036,0.0003378182501591658,0.00042331261368027957
0.000567842466980422,0.0004559553036655573,0.00042840073959376617
0.0004580044597902857,0.00045966293029990363,0.00040106210345793475
0.00029539560808767293,0.0003982800879157871,0.0002672709942615506
0.00010276248054331238,0.00033821541361162146,9.413421609866647e-05
-0.00024730564939975664,0.00015849369707466855,-0.00014653920670830106
-0.000478876198156113,4.38834665423623e-05,-0.00031031809992740643
-0.0006040317733349763,-6.779892511167026e-05,-0.000376104144807188
-0.0005810607115874809,-0.00013419561419942687,-0.0003750722971723351
-0.0006936196267146567,-0.0002708112047688777,-0.0004400034113744999
-0.000744199882304023,-0.0004911606264102331,-0.00048749949625753297
-0.0008593488530379579,-0.0008150097785485198,-0.0006392592646806604
-0.000990978019752674,-0.0011289747573836868,-0.000758979933679797
-0.0010821578378381754,-0.001326538311471691,-0.0008992493128505886
-0.0012553134737068414,-0.0014630478094469622,-0.0010664711050521521
-0.0013567374169672131,-0.0015411174188699386,-0.001135753167188808
-0.0013130369853385927,-0.0015828581605157094,-0.0011520095178737
-0.001137633611619357,-0.0012311987856269532,-0.0009284681055115255
-0.0010476627020782805,-0.0010402246324238411,-0.0008811024411002214
-0.0007753122909971583,-0.0008828035213900051,-0.000674856568608379
-0.0005085092845518921,-0.0006587965683958477,-0.0004181340859362763
-0.00020711670986317014,-0.0004057766740402421,-0.00022535376751632282
0.0001100022563750369,-8.478655174292211e-05,0.00013429393338755676
0.0002749999188473067,-0.00012162515340565245,0.00025907681694616616
0.0005266211759765799,1.1372060742827588e-05,0.0005008396681724536
0.0004479078853726198,9.01657485162291e-06,0.00047199428689267704
0.0004899166655639608,-3.782308910346728e-05,0.0005065123829875656
0.0005531242429698902,-0.00010142034446124599,0.0005669604013570267
0.0004364190076151755,-0.00019165749314832998,0.0004369249987484667
0.00034871260632853295,-0.00016261115493303388,0.0003650962825192029
7.288201270653534e-05,-0.00026752118276460017,0.00015678527523429764
3.372513673484977e-05,-0.00025279763253154757,0.00017722861257267903
-4.40341842416853e-06,-0.0001767727167217042,0.0001883984208151436
-0.00010805854505974978,-0.00012715506787751025,0.0001750604081806251
-6.022093415451293e-05,2.0683737108859225e-05,0.0002463066947855768
4.826342079759027e-05,0.00016008839686637347,0.0003366438900841857
0.0003000817481578137,0.0003623377311452236,0.0005363909074732162
0.00037163609195418114,0.00045976916684487457,0.0005234045694712236
0.0004374104767264325,0.0005360304517698351,0.0005116375045555703
0.0004984895804799375,0.0006468681333335132,0.0005164184369893386
0.0005176972342097269,0.0006857525802257455,0.00045476438911598886
0.0005242071016376473,0.0007750328802471849,0.0004342611677634915
0.0005622061000350898,0.0008712391408309498,0.00040733308261258535
0.000668345117708627,0.001001708126737913,0.0005003856436979816
0.0005037653477710974,0.0010184278587743857,0.0004243764186518013
0.0001966639263252151,0.0009185701128197013,0.00011752036331807831
0.00042113879516026125,0.0010477885880661071,0.0002943345382035794
0.00037964881782611055,0.0010107997005595164,0.00023427317479464028
0.00011975219447725403,0.000835195441881701,-3.2021825190040496e-05
0.0003577350832104749,0.0008117694199703238,3.1815685984335924e-05
0.0006597257782856276,0.0008728263551220485,0.00013258306436442907
0.0008173464067339429,0.0008584901796081074,0.0002010194087466971
0.0008234591826848033,0.0008318900170184319,0.00017600516488096011
0.0008371346187107693,0.0007840979669077482,0.00013471427310505376
0.0008023153751180451,0.0007925447799097112,0.00016565343561856312
0.000779025747686428,0.0007885909954269037,0.00019051667388107792
0.0006654240445731421,0.0007080232437210321,0.00013912683247860007
0.00042573359771279226,0.0005197844656276301,-3.8252497794174194e-05
0.0003206139758302758,0.0003617267990341215,-8.80270542726816e-05
0.00019012073401884243,0.00019961544529938842,-0.00016762615325304286
4.796745557148404e-05,1.6413402269996573e-05,-0.00029389879562786303
-0.00011273403268562135,-6.867228164269485e-05,-0.00032716897219883107
-0.0003275268367655752,-0.00021106768728315387,-0.0004462923845216902
-0.00039810533023818077,-0.0002754434348298451,-0.00039897998233559323
-0.0005036551525469337,-0.0003341588474298608,-0.000411782061831307
-0.0005982622508281704,-0.00036510866238686715,-0.00038741315459223655
-0.0005814917037500194,-0.0002726355079344556,-0.0002781841361613037
-0.0006068806545633046,-0.00030913999710096483,-0.0002704711902423376
-0.0006427214532274517,-0.0003894834716554844,-0.0003023702244128189
-0.0005400025181513982,-0.0002284529092230962,-0.00021471096739256103
-0.0005169778342986285,-0.00016684262274396436,-0.00019392401672928606
-0.0004893426571304369,-0.00011096104839257999,-0.000170667282321431
-0.0005435448159621874,-8.872119061604884e-05,-0.00019675339246632195
-0.0006970446756553665,-3.231260814518948e-05,-0.0002437129684042963
-0.0007273421723144139,0.00014863543512324623,-0.00020653953448752756
-0.0006950764925078778,0.0001530474186889942,-0.00019171233884459656
-0.0007337201077733972,0.0002338567217801682,-0.00020507381564960006
-0.0007119414720703616,0.00035800722438757355,-0.00018067453454800907
-0.0006622442177938004,0.0002575663290499874,-0.00026164621544912516
-0.0005494796672933228,0.0002893251540115348,-0.00022862205277273819
-0.0005025247697954474,0.00024880742820356465,-0.0002719517361322306
-0.0004927216414449631,0.0002465848099691623,-0.00025525834730369
-0.0005042527691009617,0.00014682423158546667,-0.00022295898273940669
-0.0006254706824169154,-0.00011127860641189608,-0.00031205747143732404
-0.000668194975815558,-9.3396030457182e-05,-0.00023203126699822144
-0.0006085597821798114,-0.0001561469922520024,-0.00017738364883357845
-0.000665760172395885,-0.00035279314051086467,-0.00017333370444227086
-0.0008196333714925122,-0.0004959992835792597,-0.00027849550424794605
-0.0008073136750095857,-0.0006007757239931174,-0.0003129583227911054
-0.000838302860826927,-0.00064462852876906,-0.00035763352510328637
-0.0009524014861002942,-0.0008050376505984126,-0.00045408191288246846
-0.0011403767601335724,-0.0009660148068555745,-0.0005901981341075367
-0.0011001882524532209,-0.0008872199674665762,-0.000491681012739255
-0.001164338859138407,-0.0008899360530134977,-0.0004776275588712862
-0.0011264145718070458,-0.0008669788826293302,-0.0004040377343865593
-0.0010832232262799845,-0.0008811978812493595,-0.00031338010202887036
-0.0010670019998738798,-0.0008617755951492262,-0.0002956803450609394
-0.0009804235341559669,-0.0008148675540138363,-0.00021602093021099955
-0.000998514048714404,-0.0008396680292224711,-0.00019996323323043388
-0.000845640955846009,-0.0007576521208180658,-7.431836534520319e-05
-0.0007043148973273238,-0.0006238454648088099,4.007262635437242e-05
-0.000572443963299574,-0.00041722790835997426,0.00010265098975044413
-0.0003393247074007562,-0.0001834494964457854,0.0003060422949144596
-0.0003925974404149955,-0.00011311874429347264,0.000204969018624125
-0.000512739528771058,-5.624390143049614e-05,2.5050519772476573e-06
-0.0003772627421431095,2.1610355863546643e-05,5.172237042532293e-05
-0.00047045803159481996,-3.9673159676129005e-06,-0.00012674753988391237
-0.0006275312107460471,-0.00010303879632733509,-0.00036286948967787647
-0.00038248942181675846,-3.02571181346794e-05,-0.00032420917598543304
-7.014663759759738e-05,0.0001010194382581012,-0.00014782095494462102
1.6945448707320907e-05,0.00012658775321060722,-0.00012518047886884425
0.0004662937893485925,0.0003203460812362691,0.00013818063625645253
0.0008383370494170767,0.0005254653857050266,0.0003851227349868773
0.0010553352694728784,0.00078245072465097,0.0006025505076864938
0.001239257720077402,0.0010022037533300619,0.0008209929977378045
0.0013745466493991737,0.001179109193757005,0.0009551282960668806
0.0015339540815276905,0.00134668294849731,0.00106697911151351
0.0014956982008621218,0.0014414922992796821,0.0010420866510040712
0.001386416567989948,0.0014936167275222021,0.0009936469610332108
0.001358594757107344,0.0014874525607226376,0.0009268145293666489
0.001375971629832666,0.0014573804208535986,0.0008920829525170132
0.001254258305853067,0.001350209915423731,0.0007624425540812788
0.0011675651104247715,0.0012363987622118306,0.0006868204158510833
0.0010840119390584757,0.0011283020698827383,0.000641339082573353
0.0009688080506513341,0.0009910178224692438,0.0005565584328592055
0.000858703804313646,0.0008605217735934421,0.0004721353598125362
0.0006458895479223231,0.0007022083043712364,0.00031347496636943803
0.0006557476659221819,0.0006863645200001084,0.00033415553653617865
0.0005359273101915873,0.0006376611100413932,0.00025184754960714737
0.0003137620785500657,0.0005660239938689954,0.00010016407572116076
5.902973170027308e-05,0.0004152921863792405,-0.00012268953418342809
2.837271502648209e-05,0.0003019903351950856,-0.00013593901636624952
5.028018773173164e-05,0.0002541703584046381,-8.255083388149372e-05
-1.9426100826990434e-05,0.00021170021218746575,-0.00016661460284192296
5.401840415710212e-05,8.693258753551232e-05,-0.00011936741089246268
0.0002996545707221323,3.319733688061733e-05,1.0958486768119386e-05
0.0006515711877598537,0.00011542197562350324,0.0002721980379330275
0.0007082790463505015,0.00014870726715033596,0.00027062838578209466
0.0009082819383459416,0.00024540310834436727,0.0003908904580948926
0.0011021301643697173,0.0002820574515000465,0.0005652384480333949
0.001143028427179387,0.00038930439542016274,0.0005881825187882198
0.0011219045569578394,0.0004464213654762399,0.0005962326001939621
0.0010353199013057083,0.0003863148011528146,0.0005241964491941502
0.0010726962355075782,0.00039906736117478254,0.000591069763214394
0.0009788348803453724,0.0003583220473202337,0.0005325419200158838
0.0007944327098400941,0.0002717543779981534,0.000396183427644607
0.000722313354608017,0.00027816657402268224,0.0003687086129575189
0.0006116890098459784,0.00027386802460015663,0.00030479624676318093
0.000454682120571589,0.0002849262700743573,0.00020282499815805677
0.00034080287808328796,0.0003363423107316595,0.00013453289363776657
0.00026452863748209254,0.0003722090927236719,0.00010266135429235863
0.0002672703464775844,0.0004132125124396558,0.00011479967130877018
0.000261039817824242,0.00044988916814867893,0.00011149194321430765
0.00026414666096166944,0.00047880623750475395,0.00013439844250836048
0.00020315759915784186,0.00044273691510693494,0.00014528063473779468
0.00018328150451019565,0.00039246039815049686,0.00014276896097163838
0.0001988220540823426,0.0003002849363468143,0.00012912145162620825
2.536253562918512e-05,0.00013976972192328201,-3.4482252065233694e-06
1.6712750366724985e-05,5.3973347194179487e-05,-1.4564051463646629e-05
-3.913391563514771e-05,-7.978882765995213e-05,-9.4161423017524e-05
-0.00011660907544698688,-0.00024992147240742184,-0.00024476626488156785
-0.00020802727797412753,-0.0004061670717514533,-0.00033751854218082593
-0.0005063533160751667,-0.0005842781098283668,-0.0006003264499318234
-0.0006941553439272746,-0.0006686555501058595,-0.0007636471440679884
-0.0006814574136730698,-0.000757703223762871,-0.0007195709258523913
-0.0007960949950773415,-0.0008266078438660946,-0.0007914552075380556
-0.0009417409079101796,-0.0008640910623961298,-0.0008641896694881587
-0.0007219252601295437,-0.0008483890707034504,-0.0007301660778781378
-0.0005065444122988578,-0.000756981880500646,-0.0005298557764760203
-0.0005393519272768344,-0.0008466065136055687,-0.0005758220839016304
-0.0004538436004154526,-0.0008021345714585563,-0.0005423139547437136
-0.00043734461870660184,-0.0008158256982474131,-0.0005433220503080434
-0.00039044773384711164,-0.000764177319129582,-0.0005050855311783425
-0.0002457450662212615,-0.0005675304511113579,-0.00032778652609884173
-0.0002338821293010073,-0.0005030719311886364,-0.00030569896949423736
-0.00020664051678537338,-0.0004121284102428566,-0.00025688989879834955
-0.00017391008808238383,-0.00037736502000965995,-0.000202487574769698
-9.94940513330169e-05,-0.00032746536927962775,-0.00015102302230113874
-0.00010106283977302445,-0.00023934114743441292,-9.599249192589063e-05
-0.00020063923162583683,-0.0003153495087688958,-0.00017421972874408665
-0.00030892385323650164,-0.0003773827260998449,-0.000225515425563042
-0.00033752041355732885,-0.0004031145704786619,-0.0002467892217499275
-0.00037737739987732415,-0.0004300867049276853,-0.0003112432791610536
-0.00042649064106005835,-0.0004534231887210156,-0.0003631373842718832
-0.0005060159646606591,-0.0004784040357336768,-0.00042430415476924887
-0.0005475108363610957,-0.00044122844253727814,-0.00043069447009357986
-0.000523680597350575,-0.0003812628071813764,-0.00042407023283688847
-0.0003930004339216023,-0.00017052016341891703,-0.0002919846664380224
-0.0003115252090722684,2.7648132845198604e-05,-0.00016525094594281456
-0.0003679250104730448,0.0001614723509923038,-0.00015637414844311848
-0.00020520682725873812,0.00021407585135315663,-7.457704701443656e-05
5.135601269085059e-05,0.0003331406752298322,0.00011329882819205526
0.00020179847674495235,0.0003282440054216481,0.00017367602219768767
0.0002226012621226816,0.00027222250976600124,0.00019338506059760947
0.0003962225825772106,0.00029772561448264287,0.0003155663004180974
0.0006415854563487732,0.00028229957869391935,0.00046893170898341474
0.0007459116870142439,0.0003703136772903661,0.0005591957766854571
0.0007588931306491784,0.00035983296707264726,0.0005673225844838028
0.0006621143011513855,0.0002661153479407886,0.000527684549092639
0.0006292284763089738,0.00012366826354772608,0.00045152604586508706
0.0005300762389005155,-9.726675466083224e-05,0.00031045355871852905
0.00039468575147232743,-0.0001903574630140267,0.0002378254772665047
0.0002746676057514207,-0.0003953476425751267,0.00014530050010915397
0.00011435680310942575,-0.0005786762193755392,2.4355519705828536e-05
9.01088155165005e-05,-0.0006601331623268897,1.2635383126511905e-05
9.413328041080112e-05,-0.0006993163095318842,3.064463680535453e-05
0.0001653089585811998,-0.0006349542374200173,0.00014014658815123234
0.00020916932083468856,-0.0007268517279932223,0.00014666055820913664
0.00024782941859940067,-0.000763324115873816,0.00012712642143838465
0.0002694905175284577,-0.0007311485499923527,0.0001001250647416651
0.00038323782804627725,-0.0005757122485575337,0.00020876287248206392
0.0005107099501130176,-0.0004364961658647859,0.00032015879974020724
0.0005178442811353007,-0.00037014381398059015,0.0003425145388419454
0.0006004701859621708,-0.000195702399221016,0.00044331171527521633
0.0007057067688108674,3.0725105949419323e-06,0.000586170214366446
0.0008305276556864837,0.00018567225863097905,0.0007759783567076538
0.0008989067071905004,0.0003178381502215742,0.0008547439738481837
0.0007994320173956679,0.0003960802140909635,0.0007977621746808744
0.0007322950553629647,0.00048529127321963344,0.0007151806790321888
0.0006035367945275658,0.0005014721930775377,0.0005941457286568982
0.0005308986364367539,0.0005491093508812021,0.0005195283750934892
0.0002007042259347422,0.0004442737462125904,0.0002027875706496204
-6.53355472282675e-05,0.0004054189534242892,-6.877693471583423e-05
0.00011125031985206529,0.0005504312617126145,6.296055584654278e-05
5.914143842087263e-05,0.000606264756110521,2.088771703416171e-05
-4.9960686360516995e-05,0.0007076774711180529,-7.918019878004346e-05
0.00016506949449935954,0.0009385687825599476,9.086722640863905e-05
0.0004764785343409774,0.0011846592615048933,0.0003043708687278346
0.00047344301939978136,0.0012480459151469165,0.000286528743272112
0.0005929801496512288,0.0013650214203029991,0.00038097605487927137
0.0007447858387489763,0.0014800868269269182,0.0005071605986563127
0.0007553468741599686,0.0014426431951841774,0.0005209285957901086
0.0008037940496322073,0.0013507115879977626,0.0005648479063706202
0.0007335100818662122,0.001176738161054473,0.0004965520590988685
0.0005984637835691717,0.0009761609727223818,0.0003744600694948451
0.0005600928133131536,0.0007781865797463255,0.0002934990410387705
0.0004530150849196194,0.0005452203447795686,0.00017670246816644598
0.0002706216200393059,0.00031134375762881337,1.1795135548525005e-05
0.00012645927608846027,0.0001264685609894015,-0.00014364980300481356
5.480251047320672e-05,4.494280900228858e-05,-0.00018267273167949573
0.0001053892438999182,5.237979901884344e-06,-0.00014975437369493368
2.4596567259500345e-05,-5.985637582037565e-05,-0.00016064865788813297
-1.0514538927801704e-05,-0.00017922133953085373,-0.00020041020406053452
0.00015397885983457185,-9.816328745535377e-05,-5.86273140014646e-05
0.0001850933558319414,-0.00012583042195866973,-3.098421946639315e-06
7.400015954192092e-05,-0.0002041237327251999,-5.782708506623434e-05
5.607432602307484e-06,-0.0002010741104914002,-2.706901411688524e-05
2.4633059080071333e-06,-0.00026424267691706156,-2.123564891677062e-05
6.3629644546821266e-06,-0.00023715854784431165,1.9009287930906874e-05
-7.986958471023275e-06,-0.00018825993903192137,3.269638406517542e-05
6.768081252989336e-05,-4.4655192990802665e-05,0.00013036490864007773
0.0003036273568638294,0.00012772742086380705,0.0003438881284275056
0.0005531007068247817,0.00019979552919874326,0.0005034210146868419
0.0005539572929519423,0.00031505023264756304,0.0005378665589975956
0.0004508191697739885,0.00033455111651603054,0.0005194307756662656
0.0004127409258250179,0.0002595391906368028,0.0005536681654447926
0.00045786820926208894,0.00025497634541862395,0.0006613652471379003
0.0003782081466281829,0.00018092961741811672,0.0006130050186462995
0.0001199950414304887,7.474849379681635e-05,0.0004739256903149233
0.00014987241429977052,-2.0832727385559435e-05,0.0004479923131951051
0.00023823286130853912,-3.212604640771724e-05,0.0005340207384823818
0.00015861756773365658,-7.276282048610182e-05,0.0004527496375091416
-0.00017875623075356106,-0.0003506816531884913,9.797744547801557e-05
-0.00020703696047846717,-0.0003738504329516755,5.271160828155448e-05
-0.00014117469303539607,-0.0002884975742043391,8.7257631056979e-05
-0.0001634675251324631,-0.00018578727624603294,0.00010584873855079098
-0.00013265410465598915,-9.176994913737883e-05,4.8439977873987244e-05
-0.00016806880552311152,-7.514637700863376e-05,-5.621755822179168e-05
3.3046115348119404e-05,8.085464795799582e-05,3.17280192420197e-05
0.00011942722293195518,0.00020278987388158598,0.00010938347888248947
0.00011119547415657092,0.0001888816675388561,7.12844338750665e-05
0.0002620795828174804,0.00024620261752023574,0.00018477443026852512
0.00016540569429749816,0.00011145379594496505,0.00013707522917111488
0.0001688450664577707,6.383362447289597e-05,0.00018804789779666993
0.00013148032038880732,2.8654500984589006e-05,0.00023808833354266215
4.0839170531083313e-05,-0.00010535066477511298,0.00016868261667397745
3.9151405797601364e-05,-0.0001574913595898665,0.00018430111623049224
-0.0001272369765418431,-0.0003573040190717686,7.953403269297143e-05
-6.207244424049274e-05,-0.0004173830885708927,0.00015121836510946618
4.255716517629462e-05,-0.00045602814335668024,0.00019841531782350215
-0.0001467726967844266,-0.0005812624602562135,1.6203232418198045e-06
-0.0006039960012737672,-0.0009062435066424226,-0.0004459169578155524
-0.0004884130873605899,-0.0010048580834863645,-0.0004320965621674744
-0.000591999332984241,-0.0010998157047860749,-0.0006027267048820515
-0.0008905598688238944,-0.0012245791548311043,-0.0009453408584808314
-0.0007743921500813605,-0.0012183830306956428,-0.0009088290277614183
-0.0007158068700514912,-0.0012959293747513779,-0.00089404919231492
-0.0005607929236614632,-0.0012348518544689322,-0.000783918026960729
-0.0005372176955448823,-0.0011633589781585123,-0.0007371550893990145
-0.0005009840519875393,-0.001116858177112821,-0.00068496660253391
-0.0004875018714656664,-0.0011070425249415645,-0.000621638249433399
-0.0004690776762680153,-0.0011005281230266532,-0.0005539101486863299
-0.000407579024532543,-0.0010310792205700042,-0.00046106300704495956
-0.0004751412206498012,-0.0010209686108366748,-0.000457227695023996
-0.0004347262045630719,-0.0009244496865991075,-0.0003100784199155182
-0.0003634906423777851,-0.0008274977548717075,-0.0001898667307889358
-0.0003818687009723124,-0.0006917357994150299,-6.923570960657299e-05
-0.0005217358783720269,-0.0007095825313315947,-0.00013537126984156718
-0.0005887447231618778,-0.0006105424324991986,-9.47927963062392e-05
-0.0005901722947312349,-0.0004909783832312483,-4.1273185684949136e-05
-0.0006360215692144969,-0.00047083057926273835,-0.00011535201497214421
-0.0006852800579224699,-0.00044948092039494704,-0.000154975943073021
-0.0006266069671987209,-0.0003831904678521613,-0.00023787082213332653
-0.0003574814398598631,-0.00010181865952929826,-3.456963089824522e-05
-0.00019012857940106003,5.163124883467225e-05,2.343048442142822e-05
-7.623659716348334e-05,0.00016617454170617463,7.526556923061171e-05
-6.486115355003358e-05,0.000225409332971179,6.916603685834089e-05
1.0369003498663737e-05,0.0003741626647484708,0.00016636182320455312
0.0001322335490099886,0.0003733628676687032,0.00028977082927293083
6.684531536508442e-05,0.0003684127916829761,0.00026440980514172603
-5.56854398082995e-05,0.00027353765485616926,0.00020853658000341755
1.3449143547319743e-05,0.0001675164618605097,0.0002582236136904
-8.49760644963261e-05,-1.1508095343292994e-05,0.00012012603771233256
-0.0002150490385664304,-0.00021398588137887486,-8.578529043168731e-06
-0.0005392812468653413,-0.000527787906597846,-0.000278177370418515
-0.0007140425948515927,-0.0006980932936948557,-0.0003961562207242051
-0.0008094266018514549,-0.0007288099064796357,-0.0004057611272289147
-0.000958332666656136,-0.0007574003488431847,-0.0004795183678414331
-0.0009846267873824623,-0.0006579453804666035,-0.00041036298342658924
-0.0010665958394243823,-0.0006461295158373384,-0.0004978294887759288
-0.0007923156803674688,-0.00035512055576996987,-0.0002673829888852771
-0.000684033218037206,-0.0002514270659380869,-0.0002473722271804935
-0.0005101929466546179,-9.442701438188184e-05,-0.0001345048230064393
-0.00038942769027212464,-7.259468459894858e-05,-4.746513521425856e-05
-0.0002764718276186802,7.189738131269048e-05,5.5668093597409326e-05
-0.0002060785283409911,0.00014569967888890373,9.350500208880891e-05
-0.00017982421033123458,0.00013062963629196584,0.00014324616171346833
-6.758961896539148e-05,0.00021024975225696643,0.00030824677520089764
-3.1625237545383235e-05,0.00022238000796342898,0.00031017601934428627
7.370124330374402e-06,0.00029601488941185085,0.00029477071263784736
9.059206223944079e-05,0.0002786898393906958,0.0003106985649513936
0.0003391192879567301,0.0004618341576848294,0.00052959335205687
0.00039217904404785254,0.0004998777811889597,0.0005038818049056472
0.00037652246919893525,0.0005296761244329004,0.00042925293518472694
0.0002494852259985305,0.0004983183496260613,0.0002942376585364898
0.0003210338117169146,0.0006041709748791049,0.0003921840103903063
0.000577483145547113,0.000770654581439184,0.0006439103524504982
0.00048454538614903936,0.0007253337545941207,0.0006055097280905491
0.000342824251479816,0.0008299027602358858,0.0005627934240241433
0.00012723740839807796,0.0007913830876070667,0.00041161810055185004
-7.234939046141267e-05,0.0007654420810343066,0.0002661329100794101
-7.555412093073518e-05,0.000853802528042303,0.00023817887932397005
-0.00035152895441393844,0.0007264800440370013,-8.613351021587874e-05
-0.0005128603764402631,0.0007128483694067977,-0.00030903966258708524
-0.00014836530927344176,0.0008928699378728817,-7.479657375029414e-05
0.00026455152584323475,0.001031349274443641,0.00018714344764376293
0.0004180778007212861,0.00107435405823323,0.00027169492584027235
0.0005170659328979517,0.0010941401109311989,0.0003493752891684063
0.0005644713280481134,0.0011359916955843274,0.0004241745980053564
0.00038706126403197934,0.0009279672966491916,0.00028506360024198286
0.000254676421513325,0.0007217274701384594,0.00016253629991461676
4.1397776104843434e-05,0.0005280563769988789,9.076890721201475e-06
-0.00010741191286360642,0.00032573146794379434,-0.0001259380980239087
-0.00011481910482312238,0.0001277953661878719,-0.0001806057255122467
-0.00013032532185278375,-0.00011989369925180365,-0.0002885800586764703
-0.00012365458811135725,-0.00026449200170918587,-0.00035634198813439466
-0.0001307485406092724,-0.000391040743938753,-0.00039947733635190946
-0.00020817058214901222,-0.0005411311015033218,-0.0005113282957477857
-0.0002403041860342757,-0.0006633859007742944,-0.0005730721696453983
-0.00030184400802964575,-0.0007705644675133388,-0.0006602185258372404
-0.00035638920437694715,-0.0008130503044941741,-0.0006603142538902778
-0.0004747019512495825,-0.0009335648685419873,-0.0007218688309622177
-0.000552201007086597,-0.0010157605729418484,-0.0007590411132618453
-0.000518446000320085,-0.0010347616556120151,-0.0007272118957934762
-0.0004334801564133377,-0.0009496457417883665,-0.0006550952756465107
-0.0004275032711106071,-0.0008824358680883726,-0.0006097633645024877
-0.0004927485604606936,-0.0008967187813778784,-0.0006646090605621142
-0.0003803421624324037,-0.0007636277105528641,-0.0005327589995682123
-0.0003249974569084617,-0.0006248669479048372,-0.0004420007447919724
-0.0003788053313275205,-0.000548117809793005,-0.00042412205554028323
-0.0002936265824738243,-0.0005900206413432744,-0.0003124724849323003
-0.00012185900336107283,-0.0004990612856822681,-0.00016595674239293983
7.590867460302496e-05,-0.00039623568220578106,4.109583687225029e-05
0.00024257337272726436,-0.00021953004709567204,0.00022988523120563126
0.00031815340500969695,-0.00020585633849310093,0.0002863211645476838
0.0005448156958249625,-7.227784633822209e-05,0.0004659903386211079
0.0006216770444867079,0.00015128587857729615,0.0005032292706776402
0.0007084273168678398,0.00033041292957460835,0.0005765896357431467
0.0007492281242018492,0.00046864279740245203,0.0005451984640816874
0.000796500867623712,0.0005300282309216611,0.00047874160307514346
0.0009315730052962823,0.0007372578710964231,0.0005785316916104344
0.0008184884495937316,0.0007660613623577124,0.0004250314000602483
0.0007511338322001295,0.0007564306884528687,0.0002886380713163999
0.0006254088550501288,0.0007417539226061338,0.00014208691659358064
0.0005490875421594888,0.0008110843526009388,9.72882035017064e-05
0.00042147492298223206,0.0008065279852216495,-6.713199568484388e-06
0.0002995245101281538,0.0007654538850949449,-0.00013133413717570318
0.0003110452732430102,0.0007291373971846314,-0.00011831253094413184
0.0002705153834951072,0.0006561393591997812,-8.090330372081637e-05
0.0001888900167527042,0.000529084481884587,-5.6132770518467136e-05
-1.1891079527749271e-05,0.0003618896086995262,-0.00014439705761796348
-4.715700604744718e-05,0.00028573815911866226,-9.32394107259955e-05
-0.00020292490081801819,9.479581929833881e-05,-0.0001825859286481048
-0.0003016788951330477,-6.168917215059286e-06,-0.00019694542437865062
-0.0003742950285744149,-0.0001261242279059183,-0.00025468556246270276
-0.00029828961825431935,-0.00015837105000590058,-0.00024425797051708326
-3.67130755549707e-05,-0.00014370795959553446,-7.843683086914617e-05
-6.427404548871135e-05,-0.00028869896299377684,-0.00019731811599967686
-0.000245791922583747,-0.0004848022684179376,-0.000412040455595869
-0.00047140048506473384,-0.0006376510334049223,-0.0006528758243557715
-0.00017243976278129742,-0.0005402945966744797,-0.00042818164471337126
-0.0003701184784359188,-0.0006011782136680937,-0.0006067629738385347
-0.0007102483811143591,-0.0007804988800503384,-0.0009108518406789867
-0.0005429055972912546,-0.0007024630993374448,-0.0007425433551447592
-0.0003289493700155385,-0.0005326258440075108,-0.0005547141203730214
-0.00029727734808538206,-0.0005347727435110264,-0.0005365750220287039
-0.0003786763503721986,-0.0005705554575606204,-0.0006053064679238362
-0.00031698955342742254,-0.0006157665930131506,-0.0005531486428259238
-0.000359714638563139,-0.0006749628051533498,-0.0005727278365603707
-0.0003087010875808132,-0.0007512302800117564,-0.0005209496127770646
-0.00027582807446307296,-0.0007874244087579733,-0.0004499355206779895
-0.0003310189673186523,-0.0008372838968913687,-0.00046507638763875614
-0.00024209847521662774,-0.0008024552964207631,-0.0003585417180076548
-0.00025541496703487647,-0.0008017440297957816,-0.0003179697223119886
-0.00020225681977945623,-0.0007077694564188567,-0.00025708999201985494
-4.5818972596137e-05,-0.0004809076481898842,-6.55495318131008e-05
6.688547796172118e-05,-0.000299818675953925,7.690187113844925e-05
0.00010190351920879064,-0.00010571140838239321,0.00018022828347804247
7.697420699716947e-05,5.372445425829006e-05,0.00023342572961685754
0.00012960066769456018,0.00021667821485218434,0.0002914649998699068
4.307316096988892e-05,0.00036611071196854223,0.00032975003080700367
-9.644313353205705e-05,0.00042695215103822536,0.0002667753676686294
-0.00015873200954091214,0.0005235110939200938,0.0002177686509363097
-5.449769220162189e-05,0.0005483308586915174,0.00027146287528364264
-2.2181773161205865e-05,0.0006424809095054104,0.0002840973946992292
-1.1758715702577427e-05,0.000732000745584858,0.0003006499985125821
0.0003001466704905512,0.0008363119332698596,0.0004444012876468719
0.0004751335911960871,0.001011717538244893,0.000511473255371442
0.0004906805466294114,0.0010170830595818312,0.0004542809984391684
0.0004624954729806026,0.001065402693619016,0.00045259589681771907
0.0006114386773905931,0.0010835295560472327,0.0005668675523445255
0.0007041153079374489,0.0010506103343502012,0.0006398925093466508
0.00047200515526544975,0.0009423734328137193,0.000483012081867114
0.0004804587340086572,0.000820287921047041,0.00047658836968430174
0.0004555668493070168,0.0006897980621062297,0.0004739595190257784
0.0004981975019568561,0.000678016745945637,0.00046048835082824173
0.00044943514367266256,0.0005887280967103495,0.0003848115108525707
0.00047336766054896154,0.0005202107073754461,0.00035006913760555775
0.000598798399896251,0.0005317036877636466,0.0004339577170336903
0.0005572381740060698,0.00042011918343996466,0.00039354262897310974
0.0005697642975978278,0.0004312152882796088,0.000395504262305541
0.00048530127788148095,0.0003153440385940394,0.00033373634843273384
0.0003688478145008752,0.0001829325649643258,0.0002539539986124436
0.0002774734453441204,0.00012124224119659181,0.00022934483555523105
0.0002118334397243351,2.4638817158054704e-06,0.00016200036677581199
0.00019073915163132283,2.7837717573998225e-05,0.00021317831089305748
0.00010689534126221377,-8.029453088934422e-05,0.00019092477768092972
0.00013599724493236606,-4.574073470632548e-05,0.00027330200549964155
0.0001112987596856101,-4.903104461450221e-05,0.0002882086626233764
-1.9559832195490274e-05,-6.747028279185007e-05,0.00020361961296763934
-0.00014440339150528965,-0.00010633817520794952,9.82919805067765e-05
-0.0002323658833253008,-0.00017547326239597145,-6.352024106513725e-06
-0.00021717995940315592,-0.00010137082498750014,2.443757232249709e-05
-0.00039211844027437485,-0.00017422044850422068,-0.00016417548086299045
-0.0005552999328656391,-0.0002532742574655792,-0.00029534623256549056
-0.0006358172294098996,-0.0004112302939757313,-0.00042807440050436716
-0.0006955274939925668,-0.0005556732722690872,-0.0005168633924929174
-0.0009396709507277711,-0.0008285703409117678,-0.0008176749051014274
-0.0012401298530151175,-0.0011041192925264497,-0.0011819856417865742
-0.0010480021407954776,-0.0011826315542218114,-0.0010954030014601929
-0.0011727742279582544,-0.0013071934715250674,-0.0013218133763482417
-0.0014265601626589405,-0.0013480779869229724,-0.0015279079553321903
-0.0012152845367720635,-0.001103624673599106,-0.0013402229604224305
-0.0009468280261588608,-0.0007170386669570583,-0.0010646075030024073
-0.0009529410900151648,-0.0005391067051162385,-0.0010098830144897365
-0.0008712870048574684,-0.00028047297229637593,-0.000892266491263158
-0.0005812184829334918,8.177176588323845e-05,-0.00058118789314324
-0.0003721083263527852,0.00033972028738138026,-0.0003961103000495849
-0.00012493201778764526,0.0005921411976388576,-0.00014891196683500027
-5.542121598958631e-05,0.0006672441011564002,-5.169818649470391e-05
8.07850471867038e-05,0.0008009453843316107,7.422450866944095e-05
0.00024164322714961906,0.0009353829817733469,0.00025971308460193945
0.0003135096587912184,0.000980913546621696,0.0003230893737035925
0.0003207541130614975,0.00100535011128016,0.0003856457124509917
0.0002697145067751385,0.0009554071310106001,0.00042002072030104354
0.00010819781857927388,0.0007781939212961404,0.0003216363226372284
5.7402210860974064e-05,0.0006433626152495108,0.0003030499655581388
-3.906539450328452e-05,0.0004933982156481644,0.0002547563868265315
-0.00017971487881876847,0.00027477880863884533,0.00018762194395352527
-0.00019684422615230123,0.00018040232139474255,0.00018738931758909718
-0.0002821669269640761,9.468483233787328e-05,0.0001357020714425617
-0.0003594537256388802,4.5473847776351924e-05,9.248884521684679e-05
-0.0002396641756278132,1.4037043344171635e-05,0.00016788469096994053
-0.00021843205353477268,-3.80869530436579e-05,0.00014914185811122792
-0.00012212070802086137,-9.094639998477148e-05,0.0001596375393340202
-2.9357346420326937e-05,-0.00018235790874683564,0.00014751404936802972
0.00018687145041899997,-0.00021244905027321945,0.00025609729931683336
0.0005346337578961736,-0.0001375933122681712,0.0004379804545061403
0.0005746186455312898,-6.115856523430881e-05,0.0004524202754284152
0.0006225013133994492,-6.830304486923081e-05,0.0004396455468054391
0.000699143135325337,5.5958156793196504e-05,0.0005424996527702605
0.0007090298997643216,0.00011645526277939644,0.0005840133821780231
0.0006133973597094093,0.00010988932606344503,0.0005239071057561804
0.0005104012451384078,0.0001266795945598475,0.0004948326969111016
0.0004318545069497694,0.00015073079982649392,0.0004968000883230605
0.0004950630200443362,0.0002248712405511999,0.0005852143733640626
0.0003899475727695161,0.00018033941438929925,0.000522999632611946
0.0003500477607408515,0.00023098113746384077,0.000493082672954598
0.0003508860649684842,0.00026806316188683193,0.0004713686716819452
0.00042280935763441656,0.00033893488549811547,0.0005233616717879308
0.00047156883687961846,0.00038145512699683205,0.0005068024461856695
0.00048725276260204567,0.0004599704116827488,0.0004935863608582404
0.0005632236964265477,0.0005957287683403008,0.0005271376756025769
0.0006089678859804355,0.0007052839819090692,0.0005465377931009299
0.000609682391525248,0.000821276295191575,0.0005519236116631455
0.00047321212045797604,0.0009027303591031617,0.00047248156427020567
0.00039273671393451955,0.0009693328994911792,0.0004294543239741647
0.00031910687080471934,0.0011086426949088982,0.0004464443977897178
0.0002995379696360191,0.0012370723134244768,0.0004396095588157264
0.00026244802785541473,0.001313999232203698,0.000420940285409043
0.000246052403651771,0.0012890275981165826,0.00035996223593109613
0.0003028283515195915,0.0011906987659091681,0.0003018743099167708
0.00029752285814910493,0.0010778130798363584,0.0002104443753043876
0.00028815935907813405,0.0008801143548595864,5.817660041990257e-05
6.96266111486425e-05,0.0005383282129257816,-0.00021558202069007565
2.8124181969887465e-05,0.00025996111382535915,-0.0003563444353179236
-0.00025679582619331156,2.9125079935965877e-05,-0.0006112659350395088
-0.0006557142690667895,-0.00024302199900459213,-0.0009454774688875507
-0.000517613238241932,-0.00031449342647336574,-0.0007908588145742478
-0.0005949771951663466,-0.0004135590048027689,-0.0007636867308552824
-0.0006924892439631703,-0.00047414953561004063,-0.0007547107504573034
-0.0004262315275353624,-0.00041651750544669013,-0.0004567009748084201
-7.606407074244696e-05,-0.00034207347004216375,-0.00016135128739613958
-1.8196175296381875e-05,-0.0003751052621699482,-9.279258384977502e-05
1.4692888465860604e-05,-0.00040451104842459217,-8.353013905281783e-05
1.541020107349703e-05,-0.0004753692405518426,-0.00013254246991232965
-6.83819305430085e-05,-0.0005883726793255899,-0.0002512394965365815
-0.00018766433780518753,-0.0006706348895307924,-0.000388767598568116
-0.00042485304358428846,-0.0008305561581748181,-0.000582331159594021
-0.0006063742315745507,-0.0009337433689702827,-0.0007047255922630404
-0.0007037346269834139,-0.0009827949987147337,-0.0007068251315732121
-0.0007217841152342889,-0.00099622658012266,-0.0006737331675274127
-0.0006981295695884676,-0.0009638677633997232,-0.0006107374874020824
-0.0006811766353789961,-0.0010158069254727034,-0.0006191504716931904
-0.0006054768350675593,-0.0009751409291466226,-0.0005663631446822936
-0.000380290483679028,-0.0008552767400464142,-0.000421609086207739
-0.0002313891692898414,-0.0007611317275503706,-0.00036492339621809947
-0.00019552397076811609,-0.0007404901683654424,-0.00037929210487341864
-0.00011897715713435935,-0.000681394290739895,-0.0003981315294945495
1.2964241376380072e-05,-0.0004028995062528553,-0.00021981348850255052
-3.205169522093061e-05,-0.0003005143957683515,-0.00023694492313954536
-2.1540251259851914e-05,-0.0002596316077930692,-0.00021112296483411088
8.669125207794135e-05,-9.685260487678125e-05,-5.3591586600715514e-05
0.0002066393651697767,4.342972997024511e-05,9.77705865137214e-05
0.00028076123609260025,0.00020759196725310156,0.0002641529948466789
0.000213179894364889,0.00017218957427824781,0.0002319097715465946
0.0003781319960426057,0.0002743470967169451,0.00041552783573422375
0.0004972808158870761,0.0005254114037204576,0.0005574368277088516
0.0005868546339510928,0.0006184438115313676,0.0005770675562435662
0.0006830902607348894,0.0007762393416080807,0.0006052978308068612
0.0007862576781367071,0.0008797497245500535,0.0006327912152973762
0.0010464761780633674,0.0009973797792598928,0.0008178082046152368
0.0011401008042303891,0.0010508079803889497,0.0008795677692757403
0.0012197810921134047,0.0010701417360335249,0.0009336302227309595
0.0011686197024699753,0.0010493716277495096,0.000917362067986974
0.0011365102105376187,0.001004205549259902,0.0009165903415400781
0.0011577090797283745,0.0009847720349077012,0.0009533563914140402
0.0009691986642902766,0.0009042782745093211,0.000834440413861729
0.0006552539107049914,0.0007378400128152916,0.0005306444892552839
0.0005462316072852449,0.0006193190394365785,0.0004490798702386943
0.0004698515619953133,0.00048647398250846176,0.000363632003199999
0.0003998827050658775,0.00041067766240845813,0.000285168109364331
0.00030271527725643613,0.0002378385768950752,0.00014419696439800256
0.00030724004718144025,0.0001525057274706616,0.00010291398997893724
0.0004446135448098547,9.797960475687322e-05,0.00018741537289235804
0.00036865772594044506,-2.1601286890336725e-05,8.203980443035312e-05
0.00030544921284587825,-7.191062489359667e-05,7.614943425356982e-05
0.00019992429422556164,-0.00022224152618020678,8.4895667313757e-06
0.00017199279195119678,-0.000250988876177297,2.353499354377635e-05
2.2768665294796782e-05,-0.0003759924380889051,-0.00011343990111191444
-7.468558679137304e-05,-0.0004192921794405673,-0.00010991969992751008
-0.00010052928184003643,-0.000442447859575181,-6.445967153831824e-05
-0.00016879331572899935,-0.0005151297790602109,-0.00010537096200116269
-0.0001275697214931917,-0.0004548572381284901,-3.534884284651953e-05
-0.00016298636571298483,-0.0004982174393028388,-4.2600134835755224e-05
-0.0002589182538646255,-0.0005116488767599736,-0.00010927306773136672
-0.000403180284546929,-0.0005472758347893064,-0.00024727937816644774
-0.00036481017800260845,-0.0005899059116328918,-0.00029855607332960243
-0.00042113922701572394,-0.0005454584413180809,-0.0004247807797017361
-0.0005827669741474497,-0.0005906825324468459,-0.0006293129041314591
-0.0002699203580753995,-0.00039536146196383123,-0.0004252640264246764
1.5700336245452047e-05,-0.0002537619666993427,-0.0002626851167298938
8.910914114450327e-06,-0.00023094630109049696,-0.0003343595164599367
0.00025210097703002785,-6.210533726271023e-05,-0.00014942040515182056
0.0004243540341215173,8.928188349944873e-06,-4.630603404516211e-05
0.00028806629413790144,-0.00010865896867737383,-0.00017334968310983305
0.0002793282663253268,-0.00010471986729419611,-0.00015288849572661433
0.0002870054401815393,-5.839972595565808e-05,-7.839450899210731e-05
0.0003454487116052285,4.658098228662904e-05,6.968858246390379e-06
0.0002836217774292308,8.815531546864166e-05,1.7518233549852564e-05
0.00031444657011088024,0.0001919721721286544,9.838295814354705e-05
0.00045953459712932016,0.0003907007294137573,0.0002526623176912162
0.00047497200512321917,0.00044270164687735625,0.0002869207244536104
0.0004624376042937808,0.0005003087733514982,0.00030156697248626124
0.0004287623469119717,0.0004756896776101504,0.00029230423978617715
0.00044998928673559943,0.00043640777936233567,0.0003347415649565276
0.0003795825999246685,0.0003453573021114509,0.00030502268319416303
0.0002950466685410308,0.0003090786735673531,0.0002813697929963411
0.00018760812456482075,0.00021974942987996614,0.00023649809626178042
4.619792612600492e-05,1.7209456599075e-05,0.00014986924735610745
-9.068303987698356e-05,-0.00017006066876804426,4.484520957583715e-05
-0.00021949816173671554,-0.00023979214891910191,-5.353458162559127e-05
-0.00039534929802235384,-0.00032683140485581996,-0.0001284722282957446
-0.00044934697309871585,-0.000584714428213426,-0.00023176596354007942
-0.00043329445838756296,-0.0005541362972118683,-0.00020647806700235233
-0.0005455180374290699,-0.0005153772324766045,-0.00027203393270123485
-0.00029810643938824147,-0.0003882437573923041,-7.066284932046744e-05
-0.00023223733422698595,-0.00038587704324825965,-2.201773990558105e-05
-0.0002347016477990263,-0.000502296749893406,-0.00010706527654892988
-0.00011579956161004317,-0.0003736146396435843,5.558013895196615e-05
-1.4214248204534792e-05,-0.00045905199818957384,9.596614871950283e-05
0.00028237407383226946,-0.00041165221716505984,0.0003169575960930704
0.00024324980297890222,-0.0004915150361309593,0.00024232181668011458
0.00035454510781772225,-0.0004700771347130535,0.0003505752726911847
0.0005190839234230854,-0.0003946438614522956,0.0005128785143874552
0.000373714686254337,-0.0005005668792121609,0.00036826624858980495
0.0004079699260753847,-0.0004318763156714828,0.0004104106315246044
0.0002973683976983205,-0.0004976924465114303,0.0003291488874300178
0.00023329991560597091,-0.0004450142350852682,0.0003560247180189777
0.00024770058159641453,-0.00039962373549274493,0.00034539616914092754
0.00031314805147224066,-0.0002730617496822716,0.000408438489697923
0.00037472666852091953,-0.0001658320799976499,0.00047174453024354565
0.0002473955473970983,-0.00014438295032690425,0.0004044549071603932
0.000189148122613367,-8.123410532026644e-05,0.0003376139823307364
0.00014343351518647022,-8.944584477350017e-05,0.00028326549633354603
-3.489179537917579e-06,-0.0001321866206721075,0.00017093460110609497
-0.00011144760601074683,-0.00016104294230159688,8.079418813608156e-05
-0.00010027707800969267,-5.12384039414764e-05,8.621959348713564e-05
-0.00020997545180023787,-7.591695184070522e-05,-8.389433750611588e-05
-0.00022148282738416905,-1.2173873149889383e-05,-0.00010274858917921223
-0.00029575656762268447,1.5683997697822855e-05,-0.00023497191760039427
-0.0002330627547545518,9.470959207551842e-05,-0.0002254853396051928
-0.0002823670921617493,0.00012228718846078743,-0.00032152260059165137
-0.0003242795684930269,0.00012608867177244044,-0.0003710894343933948
-0.00042856887548091947,2.670136081602496e-05,-0.00047114137154003784
-0.000802924867708879,-0.00024120129463736778,-0.0007969069560970419
-0.0006630225660311495,-0.0002507902224745153,-0.0006483891297239421
-0.0009648379995978375,-0.0004661838100529324,-0.0008221178383390386
-0.0012440837094748654,-0.0006786740305868218,-0.0010140497039179484
-0.0011603338997338542,-0.0007389336158423078,-0.000907928176407637
-0.0010676774224622567,-0.0007072980137565546,-0.0007978511369911231
-0.001001533297084911,-0.0006422677166553344,-0.0007063060408128948
-0.000953075397191463,-0.0005798893025276602,-0.0006148392544983291
-0.0007713153209271588,-0.00046640304888489087,-0.0004829853068006302
-0.0008003374752126081,-0.0004978509376175753,-0.0004822019202469763
-0.0007115214202567639,-0.0005255521887348731,-0.0004405461102560935
-0.0006753635674041588,-0.000502796551092479,-0.0003457969313917366
-0.0007515903038596748,-0.0005460032994793043,-0.0003612255583163249
-0.0006741270920600373,-0.0005531428847487127,-0.0003204834114046669
-0.0005876781831037001,-0.000562139450278185,-0.00026815615485244106
-0.000563375493766844,-0.000563213187933842,-0.0002763117530407037
-0.0005829102783215622,-0.0006027150447737491,-0.00026247566663127934
-0.0006869469496228761,-0.0008031603731115266,-0.0004042931051597939
-0.0006939877118717518,-0.0009132957130726416,-0.00047207950645146424
-0.0007203624456952508,-0.0009625085690106659,-0.0004283869202050617
-0.0006362123775350611,-0.0008814951420426259,-0.0003187358346332368
-0.0005339813676212747,-0.00075822879236285,-0.0001706233769733328
-0.0004552540417016509,-0.0005814593865356002,-5.893753047096579e-05
-0.00034776403489979646,-0.00036357399056161376,5.63505698309297e-05
-0.00026345489982643563,-0.00015115056373619256,0.00013950571403307236
-0.00022749440510945226,-8.342447831178415e-06,9.823857432923355e-05
-0.00048725542571330605,-9.377433620308374e-05,-0.0001686634710627522
-0.0005209252848964265,-1.9874871055881693e-05,-0.00026987263800121647
-0.0005096585969861002,8.259661060377816e-05,-0.00031526155412190814
-0.000492033838988922,0.00023594114613447524,-0.0003115401080988573
-0.000395520672829338,0.00023486049878446608,-0.00030714755804746156
-0.000407815897480063,0.00031154932102517513,-0.0003236849029549307
-0.00015470466560684763,0.0005623286031507498,-0.00014145482354627583
5.659111355374324e-05,0.0005735896769346563,-1.5171960583421278e-05
0.00016160421098661737,0.0004898757112310222,2.136506172678294e-05
0.0003583602665649719,0.00045094361624154714,0.0001683929853328807
0.0004029185798871405,0.00047287181802908125,0.00025471435285416403
0.0005920903106217838,0.0003892361621914265,0.000410719840332389
0.0006055881819065474,0.0002301054777023951,0.0004367993286899158
0.0005076116721171695,0.00019447304949820577,0.0004268675072880087
0.00039896796234722385,8.69301403527555e-05,0.0003628419948543476
0.0002564947506731881,-7.53552513002221e-05,0.00022038440196780709
0.00012077590882830684,-0.00022015926110475735,6.919928976139761e-05
2.2866120771229173e-05,-0.00034745597770992516,-5.014077025987184e-05
3.0053642041779627e-05,-0.000399859096943829,-5.8403612658682964e-05
-1.6415777477357767e-05,-0.000503244097730378,-0.00013161743462947377
7.672056364732988e-05,-0.00047450941550562336,-7.117575014733875e-05
0.00015584498104401364,-0.0004339857876657897,6.1252997708602766e-06
0.00032468400151990177,-0.0003204033741160647,0.0001955005785753434
0.0004024960089138458,-0.00011794919620098687,0.00034020972404008316
0.0004319367035180014,5.891953647842608e-06,0.0004211297261855069
0.0004924197741885377,0.00013072363692083602,0.0005261200792103468
0.0004708664233001153,0.0002153548645012762,0.0005536336169738035
0.00044968554810344345,0.00027393769734761653,0.0005782111106005631
0.0003848834868319961,0.00027693448921244383,0.0004916169541166706
0.0003773062156342006,0.00025857428066043713,0.00048090088244709536
0.00040913730447984483,0.00025395025586021,0.00048171248358904557
0.0003885001358295719,0.00017621000851718787,0.0004065435061208521
0.0001123971851027443,3.3236779716347855e-05,0.00013844205301388632
-0.00024015123707838275,-7.155794259549315e-05,-0.00018091263108729354
-0.00014876470398169506,-4.029215309023e-06,-8.213063811478797e-05
-0.0003283340473705534,-8.110181346971801e-05,-0.00027449522328117554
-0.0008555012331247256,-0.0002282542555203144,-0.0006754208602847267
-0.0007741665773628481,-0.00011844194375414417,-0.0006188635754402941
-0.0006148509865827994,-1.5216153833101969e-05,-0.0005035003322153101
-0.0007413142213504524,-4.9231425740678975e-05,-0.0005804230763883796
-0.0007261560801549634,4.8372896262392106e-05,-0.0005287411564643648
-0.0007229052850602295,0.00015314113141319297,-0.0004811376834184475
-0.000560048116230298,0.000219364646295947,-0.00035694716216751323
-0.0003793249259202405,0.0003365730657203569,-0.00017910891305166456
-0.00023987197027997272,0.00048038207958990504,-3.9651710829077095e-05
-1.3542352439888018e-05,0.00063221382399323,0.00011347214635016575
0.00021126403775397005,0.0007731344418217794,0.00028576277490319945
0.0003347834549765594,0.0007725825300154125,0.00032550085690511603
0.0003594782694480218,0.0007941773390668596,0.00031078522403044887
0.00028223753540017354,0.0007305469747599043,0.00023121606706023444
0.00023355982086619662,0.0006508026282550765,0.00017814529864323123
0.00014316979519938752,0.000554530293721433,0.0001210784238679261
4.387065481846319e-05,0.00039503886562589356,-2.2729294435234107e-05
-8.143650177605404e-06,0.0003016853009957695,-5.8066909027369406e-05
-2.9101543790085252e-05,0.00023781280949416908,-7.905136177782948e-05
-2.7255431903566228e-05,0.00021154531988044648,-8.48388063048684e-05
-0.00010996115809130699,0.00019448298218311321,-8.22731505533708e-05
4.14208803944892e-05,0.00020666750777804404,2.2152910793576735e-05
0.00019722382746613536,0.0001842563471706966,0.00014775704027591673
0.0003949821485538963,0.0002335548545237429,0.00028631367904630547
0.0005419920061889698,0.0002558462471020863,0.00039721556318567575
0.0007663431483165915,0.0002614012092147162,0.0005473932995878894
0.0009738301026164866,0.0001894324277303986,0.0006116255270319646
0.0010115229151974718,0.00015802052698742693,0.0005704195669117185
0.000901528288276149,0.0001389569691680518,0.00048698011759254424
0.0006855095173440072,8.849014772268008e-06,0.0002914543474248653
0.0006198036537036191,-6.45833262711194e-05,0.00018690247206548676
0.0004749379604846328,-5.749297257155773e-05,0.00010786161878190747
0.0002989928235701243,-6.464925626711786e-05,-2.3622516355379003e-07
0.000144195021046104,-7.557549779621372e-05,-7.765963424584939e-05
2.5252628309692853e-05,-0.00010241202950100657,-0.00015127695355564972
2.1966349056104492e-05,-7.205659217742506e-06,-9.086290784937932e-05
-8.323287825877924e-05,7.891518322580059e-05,-8.085076125574315e-05
-0.0002633061974536346,2.2788746593115163e-05,-0.00018491391971578054
-0.0002797951745014101,0.00010452020592815338,-0.0001375894255643741
-0.0004194181374045618,8.672644833135218e-05,-0.00022808943052838774
-0.00045250563894031035,0.000120923819464806,-0.00027719590596833317
-0.0005767579155810912,0.0001383666221876709,-0.0003770500531246641
-0.0005882659389489885,0.00017299397782040215,-0.0004503184328870501
-0.0005565865034920771,0.0002893935311926067,-0.000478724472793529
-0.0006387383025446123,0.0002746587527059421,-0.0006359236099072063
-0.0006225182997302724,0.00035977826532871635,-0.0006478265654709893
-0.0005872833948586057,0.000426209071030455,-0.0006198228712910121
-0.00041799049385903686,0.0005565138077525177,-0.0004919952598633446
-0.0003816909922803188,0.0005541813541747909,-0.0004561915288283389
-0.00024764429638065205,0.0006363265314376452,-0.00029893567464266433
-0.00012311289689302468,0.000723128410595213,-0.00011395971163391022
-3.361969192540851e-05,0.0007406346961320916,1.8449170861483066e-05
5.8369639992403335e-06,0.0008154872671942491,0.00014624540076182467
-0.00014170436426613143,0.0006398439975361657,5.517304281383091e-05
-9.611312366736441e-05,0.0006303253182535043,0.00015459950870207775
-0.00038717153123153864,0.00039761517382011594,-6.384182973363617e-05
-0.0007360280895181502,0.00018510465606094907,-0.0003399143346210031
-0.00048604111897019263,0.00013909818603870225,-0.00019294413575016362
-0.0005388658734895259,8.209724125939557e-06,-0.0002835202912989823
-0.0006105289010151654,-4.389397503584027e-05,-0.0003298489258037041
-0.0003569543597657647,-6.295810866301373e-05,-0.00016488645958484516
-1.943632141579702e-05,-3.2149510576657796e-05,8.27378274697953e-06
0.00010798944811931603,-5.457233129230769e-05,0.00010838416438901481
0.00016660517398864604,3.1702683698892866e-05,0.00023337966499144613
0.00027314984828082274,6.912544240624148e-05,0.0003522252500369355
0.00024832144639242397,1.719981181729453e-05,0.0003570981677722799
0.000253448799214682,-1.477508503409263e-05,0.00036129436735208724
0.00014089564216471736,-9.313231046932707e-05,0.0003180683294024732
7.942059855129351e-05,-0.00016407327497260787,0.0002733574270052509
-6.113970752698273e-05,-0.0004320361023455602,8.46014295241735e-05
-0.00021078813258084466,-0.0007444846912519129,-8.458386738709643e-05
-0.00030456448411045036,-0.001024795429692227,-0.0002660970660420331
-0.0005748809979750445,-0.0013816759421028354,-0.0005036936596955711
-0.0006864026672686788,-0.0015303328260685002,-0.0006041027416495965
-0.0007945806924543056,-0.0017122269216059756,-0.00077254567831323
-0.0008275900280764105,-0.001727674550187909,-0.000840884855123737
-0.000904115320892353,-0.0017550078601012197,-0.0010216634669386316
-0.0009664458709942808,-0.0016265167740989212,-0.0011175396456830804
-0.0007341382162358687,-0.0011876861393291143,-0.0009402304200124565
-0.0006880065799859293,-0.0009691824696949833,-0.0009429678104494608
-0.0005420050338413724,-0.0006283582147454445,-0.0008222109752562114
-0.00036688977996602527,-0.0001986668018952563,-0.0006568516334887959
-6.683171190565564e-05,0.000369061007350951,-0.00032197518554585516
0.0002551371397559623,0.0007117979519677456,-4.5279512632829914e-05
0.00030462321650974184,0.0009578653985999856,4.7277133954973824e-05
0.0005313681357487019,0.0012595771867560232,0.00024964335722383625
0.000771608838969736,0.0014104905176646287,0.0004359038035571108
0.0010480017809161829,0.0014458903195051622,0.0006674857964940384
0.001171406396452222,0.0013817706624918396,0.0007519550781215434
0.0011609549804568226,0.0013859687334481497,0.0008245454441604601
0.0012837102287100621,0.0012345518585882376,0.0008701246647716299
0.0013071557561119595,0.0010761904533641176,0.0008573122207340017
0.0011905629472372063,0.0009663457524073602,0.0007769051194139048
0.001121476371858897,0.000916268752863857,0.000743248575787086
0.0010543571878933189,0.0008132800518188383,0.0006979939668434647
0.0009908532853812164,0.0007109063135387378,0.0006077038438366171
0.0009812697557419852,0.0006949853709187716,0.0006562078803316443
0.001027114927594491,0.0007100030150014274,0.0007669348628403003
0.0011863488256371659,0.0007985166268938203,0.0009335501854423574
0.0013672071148598233,0.0008836679528993833,0.0010996230970659478
0.0015032973527570263,0.0009375527696387767,0.0012576758692923982
0.0016545953232988597,0.0010222404263873152,0.0014306760370470185
0.0016750359255505852,0.0010395155250777172,0.001454063335882027
0.0016614822728816896,0.0010419277280409192,0.001466075119127418
0.00145963960288474,0.0008890585218763213,0.0013147207194174864
0.0011332731628538768,0.0006955433287077933,0.0010749274188835603
0.0009028650261602991,0.0005222263226939908,0.0008427213942069601
0.0006927866487087724,0.0003311659422680583,0.0006390367149534754
0.0005577964916759308,0.0002341836366773656,0.0005095886363347411
0.0003329152464636556,3.53141504255114e-05,0.00029975749637264887
0.0002587493262419426,-5.998981928574854e-05,0.00018288520476943758
0.0001963028948148079,-5.973344084770852e-05,0.0001233679797623601
0.00019157688005115727,1.7582867977918654e-05,0.00013138840706262698
0.00017138768989501818,8.374980974023889e-05,0.00011333927869336341
-0.00010175164989232654,-7.160213584671828e-05,-0.00012311563198045286
-0.0004196680380037122,-0.00013301304886370653,-0.0003840076831197591
-0.00030144000685900575,-1.622770424344962e-05,-0.0002729260029857054
-0.0004988024600614712,-0.00011501819038136677,-0.0004696985410632526
-0.0009002946199948513,-0.0003051307911140924,-0.0008227441733083601
-0.0008216135746291425,-0.0002459158652196751,-0.0007750730428422772
-0.000551817231165839,-1.2555921647252529e-05,-0.0005957093348251763
-0.0005703328358572676,5.524876154008445e-06,-0.000652008225905047
-0.0004726668304405178,7.849700278638904e-05,-0.0006120605498490914
-0.00033185568807599797,0.00019822328591194568,-0.0005332851439759898
-0.0002634175442933949,0.0002647241962173791,-0.0004990844619473095
-0.0001034244436222795,0.00034123653335708676,-0.00038949685918872627
-0.00020176853473789438,0.00027765856756286906,-0.0004284411900935299
-0.00015187212292614867,0.0003483222805942617,-0.00033507884439409506
-0.0001263770075440604,0.0003002953008879566,-0.0002950360160959894
-0.00012248346695543577,0.00022383161950952502,-0.0002514102235588272
-0.00021332586165026185,0.00013812032038687397,-0.00027236617381940853
-0.0002123377754103992,-1.0168910276386138e-05,-0.00023881845787419767
-0.00024451103805989675,-0.00016112902557285382,-0.00027647801755444285
-0.0003631286032033447,-0.00040665233380168776,-0.0003804504862808367
-0.0005199207161558268,-0.000666414937877373,-0.000520759020385004
-0.0007009464215055035,-0.0009507199113002582,-0.0007174939870002347
-0.0008083702823820836,-0.0011653109667114794,-0.0008423596429371911
-0.0009620214355839285,-0.0012375071922900403,-0.0009319166186211759
-0.0010583776941084269,-0.001400996742071948,-0.0010206763883612577
-0.0010410112578996427,-0.0014492374904368998,-0.001031491355025989
-0.0010121265057579868,-0.001372901638397421,-0.000944447492626884
-0.0009534352770870457,-0.0012505227525389567,-0.0007830011969393856
-0.000891281643942354,-0.0011931280991547566,-0.000651189571117181
-0.0008468144522092917,-0.0011755901441881972,-0.0005671139980961136
-0.0008854801641004238,-0.0010789567781441466,-0.0005162163284397669
-0.0008434610193679404,-0.0009736159021016053,-0.0003683485891096005
-0.0008450611893352739,-0.0009055798881146838,-0.00032535517752441454
-0.000790930934506781,-0.0008381326376363116,-0.00028266147391602407
-0.0006477784135421158,-0.0007755791779279041,-0.00015344515795079255
-0.0004894186637644507,-0.0007070301191617756,-5.558071475822005e-05
-0.00017083642587107297,-0.0005371917122162449,0.0002295188734719311
-6.242275133046284e-05,-0.0004920195877447548,0.00028592371319132907
0.00014294487026484138,-0.0003610554071011052,0.00045210689201525097
0.00022182010682250872,-0.00030120493331182085,0.0005135873338273635
0.0002558119865357686,-0.00015280428383186034,0.0005138946712594173
0.00023796410300283485,-0.00013382853670636493,0.0004692427891638412
0.0001271984693932057,-0.00011400476859606064,0.00037875516406980845
0.00014121456772813368,-4.603036604665002e-05,0.00033725352662735536
0.00011532070542175825,-6.772205476673118e-05,0.00027628800096863616
0.00014378108718978436,-5.19220317882768e-06,0.0002620333022635654
0.00014636430507913124,3.0151169493607646e-05,0.00022546633794630322
0.00016787295888392583,0.00011974024646505244,0.0002006926378018354
0.00025771747860554525,0.00018779799719829176,0.00020980234957063094
0.00029264965250908916,0.00022985039483228742,0.00023259973328149336
0.00034109884330939423,0.00035417004099010704,0.00026029940092850423
0.0003139703770338557,0.00039146612197564376,0.0002372676634298187
0.0003843291278421001,0.00044104850258948683,0.00032116300859919554
0.0003263203034285116,0.0004346194641864705,0.0003181178488762191
0.00018548677653370784,0.0003398662546675253,0.00016679425488581517
0.00015313494147974695,0.00032576889545300286,0.000122589199668004
-3.264398555321009e-05,9.834768991396836e-05,-8.1804730882396e-05
2.0954942598092535e-05,8.168409914092222e-05,-4.562427757332019e-05
-0.00015948387061876545,-0.00010417270590100709,-0.00023415239910160303
-0.00035978503107073295,-0.00029911417507095985,-0.0004353311626669148
-0.0006491874872842139,-0.0005316733139003538,-0.0006691956578523606
-0.00046232287458262614,-0.0005230199298395402,-0.0004885812952231388
-0.0005590226744558502,-0.0005634780595365214,-0.0005028444870943934
-0.0008705652297390088,-0.0008110010044178822,-0.0008096652741969932
-0.0005361147356415293,-0.0006896735436625033,-0.0005628786435829305
-0.0002932590731245275,-0.0005793835992990405,-0.0003756623562488168
-0.00021002554708178205,-0.0004968624195207055,-0.00030619805093240417
-8.405124514120154e-05,-0.0004179511229979298,-0.0002169797942047105
0.00020123699213220054,-0.0002499653777547478,-2.07951559247874e-05
0.00029988151098397263,-0.0001131642331118579,0.00012646337871921647
0.0003972447854318275,-2.8911887085117786e-05,0.00027637667537421337
0.000406368460540891,2.1987797897750873e-05,0.00031098776443548327
0.000391378599184891,7.514277820950804e-05,0.00036269573966430334
0.0003348859487708411,6.536412169122523e-05,0.00035441260004021475
0.0002816664779818091,4.393025092867994e-05,0.0003439549221352016
0.00010337218906187767,-4.00301605265423e-05,0.00024218117561571804
-1.5989103873306853e-05,-6.866364452494756e-05,0.00021131989111349762
-0.00016140167058158295,-0.00014715949569573994,0.0001813567228784025
-0.000274125626629189,-0.00019405285373227227,0.00012316659097292234
-0.0003035761099659163,-0.00016991599705060378,0.00013150040168635348
-0.00028300559107254813,-6.724298264994273e-05,0.00024980688664937505
-0.00015413907836411183,0.00012390650403857405,0.0003940669020036121
-0.0002176602551109367,0.00012047468935507549,0.0003198625466102019
-0.00011881765836495337,0.00033043250704129623,0.0004161661187165189
6.989105089585924e-05,0.0005702026313109534,0.0005564608334335262
0.00019614425975632722,0.0007661424073103477,0.0006373164890547831
3.346609518554938e-05,0.0007706692645395861,0.0004234220171681413
9.219352777470674e-05,0.0007305865615471983,0.0003924543521693865
0.00015534366835004914,0.0008450059117835448,0.00042247596489832954
7.943549757865464e-05,0.0007510195343452096,0.00030657146231202
7.634348149319267e-05,0.0006329396297662781,0.00025984523249860774
0.00012214186895860858,0.00047645406250877584,0.00024395581535675877
0.0003634137720320738,0.00041956597606489313,0.0003944228951953978
0.00041097434739392617,0.0004198786397186956,0.00039626605606752946
0.0005684857882813388,0.0004037216158859668,0.0005251059376649065
0.0006936987283161657,0.0004084073960760406,0.0005839339206972193
0.0007463287158365142,0.00038934023945753974,0.0005904152136614097
0.0006972431134304169,0.00039113301714422815,0.0005641026670839922
0.0006672770661555578,0.0003866464664639622,0.0005454333936773087
0.0006060157192222959,0.0002260834599908513,0.000441205986033143
0.0005787743946121056,0.00017019511989745036,0.0003300477234572771
0.000560976534383776,9.363873345808097e-05,0.0002951937874420003
0.000469223355649489,-1.4632572595509822e-05,0.00016517796229858372
0.00042987775865992915,-9.588049730293635e-05,6.189372788369368e-05
0.00034267310192348597,-0.00016177565776822494,-5.146829521693183e-05
0.00034930360109288003,-6.84956525893578e-05,-3.3900686250690815e-07
0.0003114795763007752,-8.377025091862429e-05,-8.66965063227498e-06
0.0002593053406806102,-6.479522355249068e-05,-2.6727560072393726e-05
0.00026855245459319916,-4.0916328781466e-05,1.4003358586424485e-05
0.00023779431166768222,-3.5679932355274285e-06,2.7127026756814893e-05
0.00025561779534381005,4.049454954292873e-05,8.451836924424397e-05
0.00023558263378299272,-7.202060419389009e-06,3.186376593935815e-05
0.0003013403921044879,3.6276181361340974e-05,6.797022794248657e-05
0.000346976401760734,4.104041536818536e-05,8.386612292245292e-05
0.0003187619619126655,3.185714414967728e-05,5.2571111169493636e-05
0.0002164138470819077,-3.703711141240419e-05,-2.3144739785673012e-05
6.542746055367562e-05,-9.963174138070948e-05,-0.00012283334218994325
-6.521577919926344e-05,-0.0001273748825180392,-0.00015609833648918184
-0.0004887706640249793,-0.00030544719751858404,-0.0004409331970720782
-0.0008930869454498147,-0.00039374718470389395,-0.000720510068428623
-0.0008237964621231429,-0.00031062126275021966,-0.0006166105833433711
-0.0010283976115179041,-0.0003607115058730847,-0.0007921516471110718
-0.0013377413726156679,-0.0005112652447915511,-0.001128887234592162
-0.0010526944707998367,-0.0003678057462756712,-0.000999076253088062
-0.0007123747674640935,-0.00019726456587057045,-0.0008235386441656071
-0.0006964816795469509,-0.00015399303910257117,-0.0008344690603008548
-0.0005625688589688919,-3.9498401993117146e-05,-0.0007621425581998122
-0.00037716651025921386,9.331556131234498e-05,-0.000632213248186204
-0.00023218997403286998,0.00029917924135680526,-0.00042814277768466683
-7.530825098617313e-05,0.0004548046956641891,-0.00022192065726489192
-3.627884447260134e-05,0.0005642633174689948,-9.90019515638258e-05
-1.3914684180075061e-05,0.0005408063458857543,-7.421932639771149e-05
4.427638341249822e-05,0.0005283118917252214,-3.865757860578747e-05
0.00021208406008439172,0.0006117596902574715,0.00011649873627125976
0.0003139635393156713,0.0006353378693884397,0.00017813968451603913
0.00027727860636896795,0.0005249114585690489,0.000106919597166684
0.00023761322010429418,0.0003727777029585073,5.0473443235052606e-05
0.00032403664956362445,0.0003191724409221952,9.593232000710332e-05
0.0002486989604020238,0.00020070760880613658,0.00011440351552034777
8.212847883515811e-05,-5.395420158372645e-05,-1.4160985980099749e-05
9.348067420894306e-05,-0.00015117215653017465,2.9228869298179978e-05
6.101461327623016e-05,-0.0001959746123735103,9.075695920830756e-05
-8.251635738744469e-05,-0.000259711069273873,5.356668291305132e-05
7.212137055859907e-06,-0.0002829390132918113,0.00016701579694973915
0.00014503519665023972,-0.00017987804836346798,0.00035549367924568657
0.000259353780514155,-5.7414230850115726e-05,0.0005608368290080171
0.00018773206720074887,-0.00018818191706984117,0.0005371817795313374
0.000152094240797871,-0.00026965728587151073,0.0005434271352366454
0.00026746777658860166,-0.0002947469605642354,0.0006755105423535649
0.00025348205211696653,-0.00022279876420986666,0.0007301043224882913
0.00018471411439817436,-0.00027074138806908215,0.0006388432435224231
9.90958802165281e-05,-0.0003233461839963229,0.0005556129563987364
4.9577918103792044e-05,-0.00024661345640906014,0.000555738770409623
-5.176476427621299e-05,-0.00021528346432964912,0.00045831309278872756
-0.0002797587546562347,-0.000354044083027657,0.00019746321957258
-0.0005780751479747212,-0.0006206560652246277,-0.00013850596768413506
-0.0006678144388154029,-0.0007851185862913058,-0.0003566635768106157
-0.0007789686707343639,-0.0009598919542666988,-0.0005593130975317044
-0.0008575252696332862,-0.00105114914652877,-0.0007827000494423221
-0.0007891734250488991,-0.0010864615695308861,-0.000844989789163647
-0.0006185460893971458,-0.0009558402824519963,-0.0008171293271792977
-0.00043089665062009166,-0.0007178471011538008,-0.0007125257730673157
-0.00030976158165633614,-0.0005236838362704058,-0.0005797421836259186
-3.8238246551551455e-05,-0.00020558585276477388,-0.0003269625450884551
0.00014775192998035512,-9.762447527678509e-05,-0.00020690142970963225
0.0003285069336724289,5.221641354486816e-05,-2.783901314193059e-05
0.00039786924902696265,9.351133597536284e-05,6.079335911620535e-05
0.0004725683673015966,0.00013117449445396151,0.00016677136652467296
0.0005020738402869262,9.738594688203795e-05,0.00018542221408026515
0.0004641360934484721,5.747569833529097e-06,0.00012343779646138342
0.0004399027889551766,-2.2894983138086086e-05,0.0001119708713779882
0.0003090094326753559,-8.810190929187093e-05,1.618696583978673e-05
0.00023815807826551763,-0.00013743928367284942,-8.541965245657678e-06
0.000223912736437556,-0.00019718783947719485,-2.5025472120121198e-05
0.0001327433548693647,-0.00022845837939718038,-7.910750304202843e-05
6.987572001226325e-05,-0.00024770590781893523,-9.82640538262405e-05
0.00011195352516787024,-0.0002732550771625327,-6.308248315363227e-05
5.814061243096207e-05,-0.00029778852148808617,-0.00013913950025170793
-0.00014490794311831283,-0.00028008775685612193,-0.0002617862807041789
2.0687839739615433e-05,-0.00018420769140942045,-0.00010204624757433255
1.2437161281509449e-05,-0.0001492829310318593,-7.557996030703694e-05
-0.0001760141618787744,-0.00015109686965629487,-0.00020429158070690953
4.19469528245544e-05,6.178504415596593e-05,3.0348095772222172e-05
0.00019659317393755417,0.00012489343866284002,0.00015774759407634304
0.00029998378884975085,0.00015503597103870038,0.00020170433216529094
0.0004944856287394179,0.00024596322541379107,0.00026572466232722264
0.0006643839916752323,0.0003291867467954612,0.00034071960187562715
0.0007353649748235864,0.00031617622486439397,0.0003407895625269862
0.0008969581734850953,0.0004178471896849244,0.00046313130878014103
0.0009660541057397416,0.0005093797620431528,0.0005251350159610393
0.0009399462588477606,0.0005454515316237286,0.0005326320339417291
0.0008086967654238184,0.0005208075321939445,0.0005167735664701991
0.0007197183326588042,0.0004914188762232315,0.00047561439073704284
0.0007175676184268874,0.0005617349452759145,0.0005116428307765466
0.0005312986069528056,0.0004851238570926143,0.0003760716116658097
0.0004204127014833141,0.0005200366694579737,0.00035908398503378566
0.0003866078153629891,0.0006087248950756374,0.0003663621960387519
0.00031246104075172924,0.0006774923289620268,0.0003188488369186799
0.00029556575930212033,0.0007697184618550519,0.00031783570303804513
0.0002358565023827142,0.0008294399546905588,0.00023509456466916221
0.00025978153375763477,0.0008552299556593245,0.00026504564093894785
0.00014002480479338966,0.0007947558819866024,0.00015308671757393346
1.44245620163912e-05,0.0006684734508792105,-9.916274589807526e-06
3.8541193447405585e-05,0.0005902521160921057,-3.8071262279222675e-05
3.565308531030602e-05,0.0005946142922802088,1.4916301905515288e-05
-1.9677728848763628e-05,0.000499561086880569,-2.554902539048951e-05
-0.00015065781618303528,0.00042909818683081557,-0.00012494482951154438
-0.00015041792024496014,0.00033433418091526545,-0.00014867415820038718
0.00010546395496522741,0.00026863882576758303,1.6365178363410867e-05
0.00012042653742542986,0.00017070111103074158,3.850830042441587e-05
5.622590743563979e-05,5.4482217366462426e-05,-2.577805295733631e-05
0.00015168318598131523,-4.03051087664648e-05,6.01399611772732e-05
0.00018940543673850018,-0.00012897634805253294,9.214868673874321e-05
0.00018083309763032189,-0.00016449390259400403,9.303298361870841e-05
0.0001324838814653739,-0.00016992780111124193,9.847192045379565e-05
0.0001473881633817475,-0.00011304259370789537,0.00012376125651333524
0.0001587333051088445,-0.00011076728905685632,0.00014893744633200724
7.621270113908014e-05,-0.00020110563597028965,0.00013206397360411177
0.00018587084035759296,-0.00018512984765328464,0.00023137239888597732
0.0002772477286732724,-0.00023237200128412336,0.00032054185590005914
0.0002581263021670755,-0.0002022274535801966,0.0003456135365979275
0.00040064557846729483,-0.00018437050107328074,0.00048564323575683074
0.0005447578271373685,-0.00020844876930799341,0.0005892669088896904
0.0005923294148243292,-0.0001390239068288557,0.0006334125119473039
0.0005527554380534332,-0.00022753579129708134,0.0005814615458152301
0.0005808408969469519,-0.0002411309021297739,0.0006101985312704059
0.0004798915632933177,-0.0003408425368482943,0.0005341333089139066
0.0004488665334378272,-0.0003392033559006928,0.0005048848621490388
0.00039373199777263364,-0.0003623244875650896,0.0004436762016347302
0.00038447063261664975,-0.00036050623038062204,0.000412291651763724
0.0004195867051471777,-0.00019565921363382406,0.0004676040400724746
0.000359408164844327,-0.00011890662067520198,0.0004132562738354183
0.00039398197034795185,-2.4767654161813116e-05,0.0004402658357921058
0.00024184979820924185,-5.068346914223763e-05,0.0003220234094532131
0.00018110538275898402,3.1389300285728616e-05,0.00027754153461974877
0.00013546678196610102,0.00015004875544843619,0.0002446914098631507
-0.00015193287065350653,3.182374729582929e-05,-2.8985014680912113e-05
-0.0005284898883211142,-6.626885974880363e-05,-0.0003824783375162543
-0.0004595378360483789,1.6283125747514536e-05,-0.0003595735656440521
-0.000563344472119585,1.0653452568031014e-05,-0.0004847736219780398
-0.000914593943807382,-0.00015943917353590983,-0.0008094764092283276
-0.000838206341039132,-0.00016378465129708876,-0.0007864288370144156
-0.0006905260271581354,-8.899009287408879e-05,-0.000692023703330415
-0.0007030139315051553,-9.590209009691841e-05,-0.0006555825530255838
-0.0005883470558770195,-8.129859579676905e-05,-0.0005851192211188234
-0.000510689940790867,-0.00010989911479678898,-0.0005539913375905287
-0.0006047292925481936,-0.0002442239978546647,-0.0006656544396825447
-0.0005035697890358109,-0.00033747420497803735,-0.0006066011718363909
-0.0004486436958059708,-0.00042059724789271995,-0.0005589091683372322
-0.00040957275915320647,-0.0004769151406299357,-0.0005458176014527574
-0.00033542663232591276,-0.00045703407963983573,-0.0004177878814786068
-0.0002312895545337791,-0.0003920400584329999,-0.000265807578653272
-0.0001583223222684566,-0.00031925535724978906,-0.00011049521985515328
-0.00015325031897409563,-0.0002897718369385085,-6.305052582005235e-05
-0.0002155210570373031,-0.00031922095273190785,-8.415014013635755e-05
-0.00020658840617730724,-0.000297172838963034,-3.665506291658548e-05
-0.00032414662886005673,-0.0003794767952359324,-0.00015903265320557292
-0.00037384165188159246,-0.0003634981278791635,-0.0001707124832359171
-0.00030122141581024134,-0.00024861093378041277,-0.00013217222547637684
-0.00028746975722253006,-0.00019962422636869917,-0.00015186125455414812
-0.00017621785389940547,-7.869450487357413e-05,-6.624467581972905e-05
-0.00015756103233732636,-3.714680280493735e-05,-7.046693070434169e-05
-0.00017354322651705318,5.0679726391548434e-05,-3.314076376095574e-05
-0.0002752179340882728,5.357603978552709e-06,-0.00014307687421149064
-0.00016928008927566973,-7.93232870264246e-05,-5.352968725853319e-05
-0.00019635586913534377,-2.220458954695246e-05,1.5423300702067523e-05
-0.00034984313303158273,-1.4410022868324863e-05,-1.5198591694480473e-05
-0.00029671845460695057,-1.6257934151317874e-06,5.896171440004037e-05
-0.0001689745512439509,4.927561899113189e-05,0.0001703003487799325
8.79755194739582e-06,0.00015102331020581012,0.00037588274669714413
-2.3855430602856345e-05,0.00031327602476275714,0.00039401680672206796
1.484641322955188e-05,0.0003169296694133066,0.0003969920057936854
0.00020882009338414728,0.00038011752540175674,0.0005023072583861118
0.00028414497082107653,0.0005467571758844518,0.000593892661114857
0.0002754001052910897,0.0005938912215945889,0.0006089498919863513
0.00018491219229238554,0.0005537729624694955,0.0004588589586139842
0.00016413243922736197,0.0005190010790708873,0.00041028524937072484
0.00018643685945733581,0.0005196864343441715,0.0004247219033493367
4.984984335238716e-06,0.00041630920696367234,0.00025444156389464365
-0.00020137712936342216,0.00014834450821576156,-4.7842433296127094e-05
-0.00028461914857157915,2.5948923931145543e-05,-0.00021786437898780263
-0.0003738286242291898,-8.80188490119414e-05,-0.0002806416839913275
-0.0005627362031205155,-0.00026295344318013545,-0.0004642312456937111
-0.0007229287492291702,-0.0004153519264417929,-0.0006130417263961462
-0.0007130193123567748,-0.00045639061438735554,-0.0005706608303946661
-0.0007363336995252647,-0.000448463611906616,-0.0005356315608932124
-0.0008738516529441605,-0.0005494107862813926,-0.0006147736124062299
-0.0010738536812263588,-0.0007113699827965346,-0.0008189005120750928
-0.0010883515867655034,-0.000789725480808374,-0.0008565694286293582
-0.0010865210216895395,-0.0007899421285060121,-0.0008707101173841804
-0.0011736331173173805,-0.0008271839396023084,-0.0009370700987220903
-0.0011493480620945414,-0.0008283231753992733,-0.0009062034879988936
-0.0010878559601733544,-0.0007975856895806454,-0.0008464114587026849
-0.0009084800162401528,-0.000654681125863232,-0.0006549111610925676
-0.0008035686208660307,-0.00048347056885318136,-0.0005090368684791655
-0.0009376614533672767,-0.0005131973679731592,-0.0006093199924715128
-0.0010201441979715976,-0.0004974773822863959,-0.0007490270952924785
-0.0007982955886622991,-0.0004010654143539335,-0.0006293087295245352
-0.0008520950418913418,-0.0003651085184353037,-0.0007052914674104475
-0.0011500359365267505,-0.0004196871836141653,-0.0009277751207837549
-0.0009888799199619983,-0.0003277387340477187,-0.0008338424374268619
-0.0008602113411962097,-0.0001733000196837515,-0.0007009245408083944
-0.0009216413278474831,-0.00015998993372745232,-0.0006833501659958873
-0.0008664733233522738,-6.830577995665901e-05,-0.0006026029061992314
-0.0007605717544332825,-6.886373775031405e-06,-0.0005066347421532066
-0.0006678515784199401,6.151110357930441e-05,-0.00043850098478672567
-0.0004993176641195359,0.000149902212355265,-0.0003169103798520623
-0.00028673430666847384,0.0002790759185426473,-0.0001687796402918583
-0.00015256993004403728,0.00039474635524657734,-9.079683390027293e-05
7.571383562787246e-05,0.0005380529767819599,6.055497467379391e-05
0.00022233631854460658,0.0006007927103247127,0.00012981558796803106
0.00036182727750110906,0.0007286093814026675,0.00019037272192222706
0.00042364679815112404,0.0008135895485289778,0.00023502633144119819
0.0005159678673601123,0.0008449473233358169,0.00026529007136401404
0.0005508362705472877,0.0008929198892020903,0.0002795020163381277
0.0004884217964545051,0.0008724286158617945,0.00030550089159925395
0.0004214567130596444,0.0008605518595528358,0.000329780980478867
0.0004893158100901019,0.0008544323178599589,0.00042120573281952074
0.0005749377870224374,0.0008376845151913865,0.00051278048310168
0.0005133969573638063,0.0007167550816001607,0.0004832688921606166
0.0004840606279296631,0.0005792724683870114,0.0004336823369383051
0.0004782467682192963,0.0004936544501330964,0.00039143574811235097
0.00043797527223441086,0.00039286490315353957,0.00033469924308103316
0.0003521834319915272,0.00029645826144282576,0.0003117617941166614
0.00027038618661205394,0.00022134542523960342,0.00027387608591010557
0.0003607763562311987,0.00031805364630207116,0.00040288597476804993
0.0004560410270567472,0.0003034950650140532,0.00048492736266946235
0.00041923416680140986,0.00028802800291699544,0.0004678766850812038
0.000550963955933905,0.0003377505927382279,0.0005092525085127704
0.0007403076372833308,0.0003594096043638229,0.0005928229541114718
0.0006795720748777792,0.00031360452313178603,0.0005267730452922718
0.0005910534246667649,0.0002087602813461992,0.0004225411751365106
0.0007328680561324556,0.0002612611439596624,0.0005417056137684762
0.0009479260197197602,0.00034132477590720134,0.0007527648078862185
0.0009451275216776476,0.00034016092432569915,0.00085026087801548
0.0006581896669393339,0.00020066615064156745,0.000622876524178628
0.0006569179233656337,0.00013087694575679597,0.0005855309237208898
0.0006134398975134073,0.00011677397241508143,0.0005371511177641455
0.00026721103827049463,-1.694012248480018e-05,0.0002457641398563189
4.69420857739763e-05,-9.504168924290084e-05,2.9986344500908737e-05
-0.00010817298686623312,-0.0001525972809160027,-0.00013464258503029973
-2.059866150163552e-05,-1.621345300005467e-05,-5.6138096740987864e-05
2.72027454861573e-05,0.0001032561637835628,-3.504956672673118e-05
3.859531938276592e-05,0.0001852336370147265,-5.270642600982502e-05
0.00017207390887999998,0.00037889249423743405,2.3918769463762286e-05
0.00034523127217206076,0.0005861368175125981,0.00012051945841409896
0.0005398162443178252,0.0008310222746153716,0.0002325551081748056
0.0007022224836392357,0.001013785264172276,0.0003070596034020184
0.0007716780798617333,0.0010945261900831504,0.00032811315309136776
0.000848204740221776,0.0011802762122821702,0.00037043905944579006
0.0008223331184918043,0.001148225308796769,0.00032156031600475907
0.0006895878922467091,0.0010402443538420926,0.00021013919715273576
0.0005091178414548608,0.000817016180941519,5.166104688939452e-05
0.00035715790783406013,0.0006360194819110349,-3.9864327869810196e-05
0.0001083704889534182,0.0004311434562517469,-0.00021273105215982992
-0.00022416695559673838,0.0001579744623612433,-0.00045995846367054727
-4.829545010811025e-05,0.00013670311335943136,-0.00023856783751568546
-0.00014934367875690053,-5.675737806439356e-06,-0.0002651644013054631
-0.0004274433151195511,-0.00014586623130422545,-0.00042571977832408776
-0.0003343132359052495,-0.00019492836954138228,-0.000335036090663138
-0.0003078496837246099,-0.00020528499317160956,-0.00026058413790099847
-0.00044591846931044387,-0.000271615896214159,-0.00033457961900359263
-0.0004768096238450988,-0.0002769378001076703,-0.0003485842731579495
-0.0005843133780579456,-0.00035334836321323034,-0.00046832120872777536
-0.0006000537329469264,-0.00044137628119838174,-0.0005409006344185235
-0.0004172428073881076,-0.0004073382648827704,-0.0004176158588884287
-0.00035194008120666197,-0.00045487206518045564,-0.0004219748681320963
-0.0003489957598299679,-0.0005368470912288625,-0.0004750567208496036
-0.0002820687517282819,-0.0005746660057261779,-0.00046758215937459335
-0.0001776986157170298,-0.000541078415086685,-0.0003685196040365176
-0.00010547431950714192,-0.00046036944651093513,-0.00027621141852682404
-0.00014646442366605177,-0.00045841918538136277,-0.0002916607745321524
-0.00012375931316066448,-0.0003956454791769636,-0.00023097869028108396
-0.00014896292582824197,-0.0003495948159042639,-0.00019677498526107624
-0.00021752551607840366,-0.0003808525440995781,-0.0002592410661302945
-0.0003213596469739109,-0.0003904420477452962,-0.0003320607476391849
-0.00043201983577409876,-0.0003531859854048327,-0.00034765290398931184
-0.0004737790752455843,-0.00023180223943369133,-0.00031950770503246846
-0.0005123255229393428,-0.00014149872889282958,-0.0003325272959359734
-0.000284942032813416,2.7725291094809074e-05,-0.00014815449163072707
-0.00022973436955397257,0.00022626181646758333,-8.18741157259567e-06
-2.8732019114266483e-05,0.0004182013115017516,0.000137022254850579
6.76150264862306e-05,0.0003789261789959534,0.00011237393686307951
5.9431789519786754e-05,0.00033540993389898874,4.125490378619361e-05
9.95224818451834e-05,0.00029294050744117816,1.2493590441885382e-06
0.00011920380949230052,0.0002576100904449777,-5.355012843769081e-05
0.0002970545824289214,0.0001621296356334886,-1.5099120891526121e-05
0.0002841329508334793,3.161213791681274e-05,-6.16612454716013e-05
0.0004830125856979723,0.00016539561766025504,6.82356753529643e-05
0.0006277914758863398,4.072818357139e-05,0.00011226381361353927
0.0008386929706334668,3.2014051783990726e-05,0.0002586498554397605
0.0008363644757349327,-5.2300049632596024e-05,0.0002476247189147364
0.0007855364068506503,-0.0001632464149255462,0.00019554131697823406
0.000875068622797762,-0.00021535328102944467,0.0002722952055047885
0.0007327505913346449,-0.00037175550010311824,0.00018386004743071072
0.0007605122302984615,-0.00032285185297210633,0.000304792504013264
0.0007018446817249644,-0.0003605344449650572,0.00034097641216912977
0.0006040070855742713,-0.000395484109031827,0.00031482840268051205
0.00046691645354416484,-0.00038011723749708533,0.00031501496441798435
0.0002160112854307635,-0.000501616288987952,0.00015125334543437347
0.00022483309328262953,-0.0004922045660111677,0.00020968301339631732
9.91736142739369e-05,-0.0005535933104263755,0.00011024877410356514
-2.9042451512271213e-05,-0.000602428148521625,2.2565477105023957e-05
-0.00012435325894017112,-0.0006756904823021285,2.214556924298961e-05
-9.078913247116323e-05,-0.000692574463523502,5.111690848907733e-05
-3.640206734916763e-05,-0.0006677919823089511,0.00010597699974520663
-6.879125793539703e-05,-0.0006489034700703092,8.863222830580024e-05
1.9498868541173307e-05,-0.0005445087902499155,0.00018403494905833606
0.00011508923067292684,-0.0004314505057791294,0.0003019413915291381
0.00026310963105431485,-0.0003392750439754468,0.0003280074923549674
0.00025811219487524405,-0.00030879811120023846,0.00023749107686792895
0.0003238309422156992,-0.0002078723856678805,0.0002504660426647461
0.00033122417083494707,-0.00020299644494120876,0.00018429650976810557
8.425155429043825e-05,-0.0003481681080466043,-0.00012285925354241285
-0.00024832864398990315,-0.00046927791344108415,-0.00047125854843394936
